percentiles,hv10,hv120,hv150,hv180,hv20,hv30,hv60,hv90,ivcall10,ivcall1080,ivcall120,ivcall150,ivcall180,ivcall20,ivcall270,ivcall30,ivcall360,ivcall60,ivcall720,ivcall90,ivmean10,ivmean1080,ivmean120,ivmean150,ivmean180,ivmean20,ivmean270,ivmean30,ivmean360,ivmean60,ivmean720,ivmean90,ivput10,ivput1080,ivput120,ivput150,ivput180,ivput20,ivput270,ivput30,ivput360,ivput60,ivput720,ivput90,phv10,phv120,phv150,phv180,phv20,phv30,phv60,phv90
0,0.092628,0.17931,0.1871,0.191691,0.130228,0.147246,0.16197,0.169647,0.18318,0.2243,0.22558,0.22928,0.23218,0.19174,0.2376,0.19718,0.24098,0.21178,0.22488,0.21916,0.18786,0.25498,0.22868,0.23338,0.237,0.19638,0.2444,0.2022,0.2494,0.21498,0.25408,0.22136,0.18658,0.23298,0.23056,0.2357,0.2383,0.19766,0.24032,0.20222,0.23768,0.21568,0.23408,0.2227599999999999,0.1345,0.17753,0.182212,0.188,0.14911,0.156782,0.169871,0.1734
1,0.1073,0.18976,0.1933,0.1958639999999999,0.142764,0.1583,0.1730799999999999,0.1865959999999999,0.19388,0.2468,0.23076,0.2336,0.2365,0.20072,0.2418,0.20632,0.24506,0.22,0.24686,0.22486,0.1959,0.258,0.2332,0.23726,0.24082,0.20532,0.2481,0.20976,0.2517,0.2224,0.2577,0.22892,0.19486,0.2377,0.235,0.23926,0.2425,0.2050799999999999,0.2453,0.20986,0.2434,0.22186,0.23856,0.2293,0.142128,0.18536,0.189224,0.1907,0.1563,0.164164,0.174642,0.1801
2,0.116046,0.19809,0.1998,0.202146,0.1494,0.164292,0.1841,0.1968,0.1996399999999999,0.2528,0.2348,0.23704,0.23934,0.20784,0.24464,0.2135,0.2479,0.22592,0.25254,0.2306399999999999,0.20148,0.2605,0.23704,0.241,0.2437399999999999,0.21064,0.25074,0.21634,0.2534,0.2281,0.26014,0.23344,0.2006,0.24674,0.2379399999999999,0.2415,0.24454,0.21094,0.2488,0.21534,0.2507,0.2281,0.2474599999999999,0.23334,0.148992,0.1893,0.192,0.192876,0.1613,0.169046,0.177813,0.18585
3,0.122312,0.2034,0.204744,0.206364,0.1548,0.1692,0.19058,0.2013,0.2035,0.2558,0.2378,0.2404,0.2421,0.2132,0.2473199999999999,0.218,0.25022,0.2311,0.2554,0.2336,0.2056,0.2621,0.2402,0.244,0.2471,0.21572,0.25262,0.22072,0.255,0.23202,0.26172,0.2364,0.2043,0.25222,0.24042,0.2445,0.24662,0.215,0.25142,0.2205,0.25502,0.2315,0.25502,0.23632,0.1534,0.1927,0.1938,0.195,0.166156,0.1734,0.1822,0.1901
4,0.1279,0.2065,0.207955,0.2088,0.1605,0.1727,0.1958,0.2055,0.2086,0.2578,0.2398,0.2428,0.2444,0.2175,0.2498,0.2232,0.2528,0.2338,0.2578,0.2371,0.2102,0.2635,0.243,0.247,0.2492,0.2188,0.254,0.2248,0.2569,0.2344,0.2633,0.2388,0.2084,0.2562,0.2435,0.2475,0.2492,0.2188,0.2542,0.2247,0.258,0.2343,0.2581,0.2392,0.15911,0.195,0.1954,0.19716,0.17171,0.1787,0.1885,0.1935
5,0.134192,0.2099,0.211166,0.2126,0.1654,0.1774,0.1991,0.2089879999999999,0.21276,0.26,0.24306,0.24578,0.2474,0.22146,0.2523,0.2271,0.2552,0.2365,0.2597,0.23988,0.21388,0.2646,0.24568,0.2496,0.2514,0.22316,0.2555,0.2284,0.2584,0.2373,0.2643,0.2414,0.21278,0.25848,0.24588,0.24958,0.2508,0.22168,0.2561799999999999,0.22748,0.2603,0.2374,0.2602,0.2418,0.1633,0.1971,0.1983,0.199852,0.1761839999999999,0.1822919999999999,0.193126,0.196
6,0.139148,0.21262,0.213877,0.2166,0.169374,0.181674,0.20299,0.212186,0.2164,0.2624,0.2455,0.2482,0.25,0.22536,0.25456,0.2303,0.2575,0.23946,0.26212,0.2421,0.21766,0.2656,0.248,0.2515,0.25306,0.2264,0.2568,0.2314,0.2599,0.2402,0.2652,0.24346,0.2164,0.2626,0.2482,0.2516,0.2526,0.2251,0.2581,0.2306,0.2625,0.2397,0.26336,0.2439,0.1674,0.1994,0.200384,0.2014,0.179574,0.1857,0.195297,0.19765
7,0.1446,0.2157,0.2165,0.220828,0.1733,0.1851,0.2067,0.2146,0.22054,0.2643,0.248,0.25028,0.2516,0.22868,0.25654,0.23284,0.2591,0.2423,0.26384,0.24464,0.22134,0.2669,0.2501,0.2532,0.2546,0.22944,0.25814,0.2342,0.2617,0.24244,0.2666,0.2456,0.2198,0.26564,0.25,0.2529,0.2544,0.2281,0.2599,0.2332,0.2642,0.2418,0.26594,0.2459,0.170456,0.201,0.202,0.203,0.1821,0.188256,0.196868,0.1997
8,0.1487379999999999,0.21827,0.2195,0.2232,0.1775,0.1895379999999999,0.21,0.2165,0.22372,0.2657199999999999,0.2501,0.2526,0.254,0.2315,0.2587,0.2363,0.261,0.24472,0.2654,0.2474,0.2248,0.2682,0.2521199999999999,0.2548,0.25572,0.23212,0.2599,0.237,0.2633,0.245,0.2678,0.2482,0.2229199999999999,0.2678,0.2521,0.25482,0.2561,0.2311,0.26142,0.2358,0.2657,0.2443199999999999,0.26844,0.24802,0.1732,0.2023,0.2038,0.2042,0.1847379999999999,0.1911,0.199239,0.2015
9,0.1533,0.2207,0.223,0.225,0.1824,0.1928,0.2132,0.2190899999999999,0.2267,0.2674,0.2522,0.2552,0.2558,0.2341,0.2601,0.2387,0.2624,0.2472,0.2669,0.2495,0.2273,0.2696,0.254,0.2562,0.2569,0.2342,0.2613,0.2396,0.2644,0.2478,0.2692,0.2504,0.226,0.2704,0.2541,0.257,0.2578,0.2336,0.2628,0.2387,0.2671,0.2464,0.2708,0.25,0.17644,0.2036,0.20512,0.2054,0.1872,0.1934,0.20041,0.2029
10,0.158,0.22343,0.227242,0.2278,0.1856,0.196302,0.2163,0.2210389999999999,0.2292,0.2689,0.2541,0.25708,0.25788,0.23628,0.2613,0.2411,0.2638,0.2501,0.2687,0.2513,0.2298,0.2714,0.2556799999999999,0.25808,0.2584,0.2371,0.2625,0.2415,0.26558,0.2502,0.2703,0.2522,0.2286,0.273,0.25608,0.2584,0.2595,0.23648,0.2644,0.2409,0.26818,0.24798,0.2728799999999999,0.25188,0.1788,0.2049,0.2064,0.2067,0.189302,0.195702,0.2023,0.204
11,0.1618839999999999,0.22686,0.2303,0.230592,0.189,0.2001,0.219,0.2233,0.2318,0.27036,0.25606,0.25846,0.2595,0.2389,0.2628,0.2437,0.26496,0.25276,0.2701,0.2536,0.2322,0.2726,0.2572,0.2595,0.25996,0.2396,0.2638,0.2437,0.267,0.25216,0.2721,0.2542,0.2308,0.275,0.2576,0.26,0.2613,0.23916,0.266,0.2436,0.26936,0.2502,0.2745,0.254,0.1812,0.2059,0.2075,0.2082,0.1912839999999999,0.1976839999999999,0.2038,0.2052
12,0.1668,0.2291,0.2331,0.2338,0.192832,0.2041,0.2215,0.2249,0.23384,0.2722,0.2575,0.2598,0.26084,0.2414,0.2638,0.2464,0.26654,0.25454,0.27154,0.2555,0.2344,0.2742799999999999,0.2587,0.2607399999999999,0.2612,0.2424,0.265,0.2466,0.2687,0.2542,0.27364,0.25654,0.2332,0.2768,0.2595,0.26184,0.2632,0.2414,0.26764,0.2461,0.2704,0.2522,0.276,0.25594,0.184866,0.2069,0.2085,0.211,0.193566,0.1995,0.2054,0.2067
13,0.171148,0.2311,0.235,0.2372,0.1963,0.207348,0.2233,0.2269,0.2367,0.2737,0.25912,0.2614,0.2624,0.24422,0.2652,0.2487,0.2683,0.25682,0.27312,0.25742,0.23692,0.27612,0.2601,0.26202,0.2633,0.24464,0.2664,0.24872,0.2703,0.256,0.2752,0.2582,0.2354,0.27802,0.261,0.26352,0.2651,0.2438,0.2693,0.24754,0.2718,0.2544,0.2776,0.2577,0.1875,0.2083,0.21,0.212988,0.1962,0.2017,0.2068,0.208
14,0.1759,0.2338,0.238,0.2397,0.20133,0.21033,0.2251,0.2302,0.2389,0.2751,0.2607,0.263,0.2643,0.2464,0.2668,0.2508,0.2698,0.2589,0.2747,0.2594,0.2397,0.2776,0.2618,0.2636,0.2649,0.2468,0.2681,0.2512,0.2712,0.258,0.2771,0.2598,0.2386,0.2795,0.2628,0.2651,0.2669,0.246,0.271,0.2497,0.2729,0.256,0.2791,0.2594,0.1906,0.2098,0.21178,0.21498,0.1989,0.2037,0.2081,0.209
15,0.1789,0.2364,0.240776,0.2427,0.204512,0.214636,0.22742,0.2328,0.2426,0.27718,0.2624,0.2646,0.2661,0.24858,0.26878,0.25318,0.27138,0.2607,0.27638,0.2608,0.24298,0.2793,0.2633,0.265,0.2662,0.2488,0.27028,0.2531,0.2725,0.2599,0.2788,0.26138,0.2416,0.2812,0.26448,0.2667,0.2688,0.2483,0.2722,0.2523,0.2739,0.2582,0.2807,0.2612,0.192312,0.2117,0.2139,0.2176,0.2014,0.2057,0.2092,0.2104
16,0.1822,0.23921,0.243,0.2465,0.207394,0.218894,0.2299,0.235633,0.2446,0.2792,0.2644,0.26616,0.2675,0.25066,0.2706,0.25546,0.27256,0.2627,0.27836,0.2624,0.2453,0.28096,0.26496,0.2664,0.26796,0.2512,0.27236,0.2555,0.27406,0.2617,0.2804,0.2627,0.2445,0.2826,0.2659,0.2685,0.2704,0.2506,0.2735,0.2548,0.2752,0.2603,0.2824,0.2627,0.1945,0.2136,0.216804,0.219,0.2039,0.207,0.2105,0.2116
17,0.1862,0.2417,0.244998,0.2488,0.2104,0.2227,0.233,0.238,0.2470399999999999,0.2809,0.2658,0.26764,0.26874,0.2525,0.2719,0.2581,0.2739,0.2645,0.28034,0.264,0.2476,0.28264,0.2665,0.2682,0.2698399999999999,0.2534,0.2737,0.2578399999999999,0.2757,0.26344,0.2819,0.2642,0.2468,0.2842,0.26754,0.2698,0.2717,0.2532,0.2751,0.2575,0.277,0.2622,0.2837,0.2645,0.1967,0.2174,0.2193,0.221156,0.2061,0.2094,0.211678,0.2132
18,0.1894,0.244,0.2477,0.250929,0.2134,0.2254,0.2351,0.2397,0.2496,0.283,0.2669,0.2692,0.2704,0.2552,0.27342,0.2606,0.2755,0.26642,0.28222,0.2655,0.24972,0.2842,0.268,0.2699,0.272,0.2556,0.2752,0.2601,0.27722,0.26524,0.2837,0.2659,0.24922,0.2858,0.2692,0.27122,0.273,0.25554,0.27612,0.26,0.27852,0.2648,0.2853,0.266,0.1986,0.2199,0.2224,0.2236,0.2085,0.2114579999999999,0.2129,0.2154
19,0.19294,0.2475,0.25072,0.2537,0.21704,0.22794,0.2371,0.2418,0.252,0.2847,0.2685,0.2706,0.2724,0.2571,0.2753,0.2634,0.2775,0.2685,0.2837,0.2677,0.2521,0.2859,0.2694,0.2714,0.2736,0.2577,0.2764,0.2626,0.2786,0.267,0.2853,0.2675,0.2517,0.2871,0.2705,0.2729,0.2745,0.2578,0.2776,0.2626,0.2802,0.2664,0.2869,0.2681,0.2004,0.2214,0.2245,0.2252,0.2101,0.2134,0.2141,0.2177
20,0.197322,0.24973,0.2543,0.255911,0.220322,0.231122,0.2391,0.243529,0.2545,0.2859,0.2704,0.272,0.2738,0.2594599999999999,0.2766,0.2658,0.27918,0.2704,0.2853,0.26968,0.2549,0.28768,0.2709,0.2727799999999999,0.2749,0.2597,0.2778,0.2646799999999999,0.2801,0.2689,0.2868,0.26958,0.2545,0.289,0.2723,0.2747799999999999,0.27608,0.2602,0.279,0.26488,0.2818,0.2682799999999999,0.28858,0.2699,0.202344,0.2231,0.2256,0.2261,0.2113,0.2152,0.2159,0.2204
21,0.201404,0.25196,0.2562,0.259002,0.224,0.2333,0.241,0.2459,0.25686,0.2875,0.27206,0.27376,0.27556,0.2618,0.2782,0.2677,0.2812,0.2724,0.28676,0.2713,0.2573,0.2898,0.2725,0.2746,0.2765,0.26166,0.2791,0.2666,0.28176,0.271,0.28876,0.27156,0.2568,0.2906,0.2739,0.2766,0.2776,0.2622,0.28066,0.2673,0.2835,0.2704,0.29026,0.2721,0.2047,0.22482,0.227164,0.2269,0.213304,0.2167,0.2179,0.2218
22,0.2045,0.25379,0.2582529999999999,0.261793,0.2271,0.2354,0.2432,0.247927,0.2592,0.289,0.27394,0.27574,0.27704,0.2641,0.28014,0.26944,0.2829,0.2742,0.2885,0.273,0.2592,0.29134,0.27434,0.2769,0.27814,0.2633,0.2808,0.2692,0.2834,0.273,0.2904,0.2735,0.2593,0.2921,0.2759,0.2783,0.2792,0.2649,0.2824,0.2693,0.2852,0.2727,0.2918,0.27384,0.206386,0.227,0.2289,0.2282,0.2154,0.218286,0.2202,0.22365
23,0.208168,0.2554,0.2607,0.264,0.2294,0.237368,0.24498,0.2505,0.26142,0.2901,0.2755,0.27762,0.2788,0.2663,0.28212,0.27172,0.28482,0.2758,0.29,0.2748,0.2614,0.2932,0.27692,0.27882,0.2798,0.26542,0.2827,0.2713,0.2856,0.2754,0.29192,0.27522,0.2619,0.2936,0.2775,0.27982,0.2808,0.2673,0.2844,0.2715,0.2872,0.2745,0.2935,0.2757,0.208368,0.229,0.2302,0.2297,0.2171,0.2193,0.2219,0.2255
24,0.2117,0.258,0.2621,0.2655,0.2329,0.23965,0.24705,0.2529,0.2642,0.2914,0.2779,0.2799,0.2807,0.2686,0.2839,0.2737,0.2866,0.2774,0.2913,0.2767,0.2639,0.2948,0.2792,0.2812,0.2819,0.2686,0.2848,0.2736,0.2876,0.2772,0.2938,0.277,0.2644,0.2952,0.2797,0.2815,0.2823,0.2693,0.2866,0.2736,0.289,0.2762,0.295,0.2774,0.21075,0.2308,0.2313,0.2314,0.21905,0.221,0.2237,0.2274
25,0.2146,0.2604,0.2638,0.266866,0.236,0.242232,0.2491,0.255074,0.2665,0.2926,0.2802,0.2818,0.2833,0.2709,0.28608,0.27608,0.28906,0.27908,0.2926,0.27858,0.26648,0.2959,0.2816,0.2831,0.2837,0.2715,0.2873,0.2757,0.2896,0.279,0.2951,0.2795,0.2667,0.2974,0.2818,0.2834,0.2843,0.27218,0.28878,0.2764,0.29128,0.27818,0.2972599999999999,0.2795,0.2127,0.2323,0.2324,0.2332,0.2213,0.222532,0.2254,0.2288
26,0.2177,0.26212,0.265597,0.2686,0.2383,0.244914,0.25089,0.2575,0.269,0.2942,0.2826,0.2843,0.2852,0.2733,0.2884,0.2778,0.2913,0.281,0.29396,0.2814,0.2692,0.297,0.28386,0.285,0.2859,0.27446,0.2898,0.2781,0.2916,0.28066,0.29626,0.28176,0.26906,0.2989,0.28396,0.2853,0.2863,0.2744,0.2908,0.27866,0.29366,0.2805,0.2989,0.281,0.215,0.23371,0.2338,0.2349,0.2228,0.223914,0.2271,0.23075
27,0.2206,0.2642,0.268,0.2702,0.241088,0.2481,0.25316,0.259872,0.2711,0.2957,0.2847,0.28614,0.2874,0.27574,0.291,0.27964,0.29284,0.2832,0.29524,0.2828,0.27164,0.2983,0.28584,0.2874,0.2884,0.27664,0.2918,0.28054,0.2940399999999999,0.2826,0.2975,0.28374,0.2713399999999999,0.3006,0.2857,0.28724,0.2885,0.2765,0.29264,0.2807,0.29618,0.2821,0.30044,0.2826,0.217396,0.23464,0.2348,0.2371,0.2247,0.2257,0.2287,0.2325
28,0.223978,0.2664,0.2701,0.272,0.2434,0.2506779999999999,0.2555,0.2628419999999999,0.2733,0.2971,0.2868,0.2881,0.2896,0.27812,0.2926,0.2814199999999999,0.2945,0.2853,0.2967,0.2855199999999999,0.274,0.2996,0.2877,0.2892,0.29012,0.2792,0.294,0.2824,0.2965199999999999,0.2844,0.299,0.2855,0.2738,0.3021199999999999,0.2873,0.2893,0.2903,0.2793,0.2946199999999999,0.2828,0.2985199999999999,0.2835199999999999,0.30222,0.28472,0.2197,0.2355699999999999,0.2364,0.238868,0.226178,0.227,0.2308,0.2340499999999999
29,0.227,0.2683,0.2718,0.27393,0.2465,0.25346,0.2586,0.26617,0.2754,0.2986,0.2887,0.2901,0.291,0.2804,0.2942,0.2834,0.2961,0.2871,0.298,0.2873,0.2762,0.3013,0.2895,0.2909,0.2921,0.2814,0.2959,0.2842,0.2982,0.2859,0.3006,0.2875,0.2758,0.3038,0.2891,0.2912,0.2924,0.2822,0.2967,0.2846,0.3009,0.2852,0.304,0.2866,0.2216,0.2366,0.2377,0.2408,0.2274,0.22876,0.2324,0.2355
30,0.231442,0.2709,0.2736,0.2781,0.2489,0.2554,0.2617,0.2681,0.2777,0.2997,0.2903799999999999,0.2919,0.2929,0.28278,0.2959,0.2858,0.2979,0.2888,0.2996,0.2889,0.279,0.3028,0.2912,0.293,0.29388,0.2841,0.2978,0.2865,0.30018,0.28808,0.30228,0.28926,0.279,0.3057,0.2909799999999999,0.29328,0.2947599999999999,0.2841,0.2993,0.2869,0.3031,0.28778,0.3063,0.2889,0.2239,0.23773,0.239172,0.2422,0.2293,0.230584,0.2344,0.2373
31,0.2354,0.2743,0.2751,0.2804,0.2519,0.2577,0.2646,0.270268,0.28022,0.3012,0.2922,0.29366,0.29446,0.28506,0.2975,0.2883,0.2992,0.2908,0.3009,0.29046,0.28192,0.3042,0.29296,0.2947,0.2958,0.2864,0.2995,0.2889,0.3025,0.2901,0.304,0.29106,0.28176,0.3079,0.29326,0.2953,0.2971,0.28642,0.30136,0.2888,0.305,0.2898,0.30826,0.29076,0.226,0.23926,0.241384,0.2437,0.2312,0.2324,0.236,0.2388
32,0.2378,0.2762,0.277,0.2823,0.2543,0.2606,0.2669,0.272817,0.28304,0.30264,0.29424,0.2956,0.2966,0.28794,0.2996,0.29094,0.3008,0.2926,0.30244,0.292,0.2844,0.306,0.295,0.2968,0.2981,0.2891,0.3012,0.29134,0.30454,0.29264,0.30624,0.29234,0.2839,0.3097,0.29514,0.2978,0.3,0.2889,0.3038,0.2911,0.30694,0.29174,0.31024,0.2927,0.2283,0.2411,0.2434,0.2452,0.2327,0.233806,0.2377,0.2400499999999999
33,0.2402,0.27892,0.2799,0.284,0.2568,0.262988,0.2691,0.275366,0.2857,0.3043,0.29622,0.2975,0.299,0.2903,0.301,0.293,0.3022,0.2944,0.304,0.29372,0.2868,0.30752,0.2965,0.299,0.3008,0.29182,0.3035,0.2934,0.3063,0.2944,0.3078,0.2942,0.28632,0.3113,0.29762,0.3001,0.30262,0.29092,0.30614,0.2932,0.3088,0.2936,0.3118,0.29472,0.230288,0.2428,0.245508,0.2468,0.234,0.2353,0.2395,0.2422
34,0.24367,0.2818,0.2828,0.2865,0.2598,0.26587,0.2713,0.2784,0.288,0.3056,0.298,0.2998,0.3009,0.2929,0.3023,0.2948,0.3038,0.2963,0.3054,0.2961,0.2893,0.3093,0.299,0.3007,0.303,0.2944,0.3055,0.2957,0.3083,0.2962,0.3098,0.2961,0.2884,0.3133,0.2997,0.3021,0.3048,0.2935,0.3084,0.2952,0.3109,0.2962,0.3134,0.297,0.23237,0.24455,0.2476,0.24892,0.2357,0.23797,0.2412,0.2438499999999999
35,0.2474,0.2849799999999999,0.287096,0.289,0.262504,0.2685,0.27462,0.2814639999999999,0.2909,0.30698,0.30028,0.3016,0.3026,0.2946,0.3041,0.29728,0.3056,0.2983,0.3071,0.2985,0.2919799999999999,0.3112,0.3006,0.3030799999999999,0.3048,0.2964799999999999,0.3076,0.2976,0.3098,0.2984,0.3113,0.2980599999999999,0.29118,0.315,0.30178,0.3039,0.3064,0.2957,0.3103,0.2972,0.3126,0.2981,0.3152,0.2989,0.2343,0.2462,0.2493319999999999,0.252412,0.2375,0.2395,0.243156,0.245
36,0.2506,0.28711,0.2911,0.2918,0.265768,0.2714,0.27838,0.285213,0.2937,0.3084,0.3026,0.30356,0.30456,0.2969,0.3058,0.29976,0.30726,0.30116,0.3087,0.30046,0.29446,0.31306,0.3026,0.3049,0.307,0.2985,0.30936,0.29956,0.3117,0.3005,0.3132,0.30072,0.2943,0.3164,0.3037,0.30626,0.30816,0.2977,0.3119,0.2992,0.3142,0.3001,0.3167,0.30106,0.236234,0.24841,0.252088,0.255204,0.239134,0.241534,0.2447,0.24645
37,0.2536,0.28914,0.294718,0.2949159999999999,0.268132,0.2743159999999999,0.2823,0.2874,0.29574,0.3105,0.30414,0.30594,0.30684,0.2992,0.3082,0.3018,0.30894,0.3035,0.3102,0.3027,0.2971,0.3143,0.30464,0.3072,0.3084,0.3008,0.3115,0.30164,0.3134,0.30264,0.31464,0.3027,0.2966,0.3179,0.3056,0.3082,0.3099,0.3002,0.31364,0.3011,0.31594,0.3023,0.3186,0.30374,0.238,0.25054,0.254056,0.2572,0.2407,0.2431,0.246298,0.2481
38,0.257098,0.292,0.297229,0.297349,0.2713,0.2775,0.28633,0.289511,0.2984,0.3123,0.30592,0.3076,0.3086,0.3018,0.31,0.3034,0.31092,0.3056,0.3118,0.30462,0.29952,0.31592,0.30672,0.3088,0.3105,0.3025,0.3133,0.3035,0.3151,0.3048,0.31622,0.305,0.29902,0.31982,0.30732,0.30982,0.31132,0.30212,0.3152,0.303,0.3171,0.3043,0.3199,0.3056,0.24,0.25367,0.257,0.2613,0.2427979999999999,0.2446,0.2485689999999999,0.25035
39,0.2595,0.295,0.2994,0.301,0.2743,0.2804,0.2901,0.2915,0.301,0.3136,0.3082,0.3097,0.3105,0.3042,0.3122,0.306,0.3129,0.3077,0.3133,0.3067,0.3019,0.3175,0.3084,0.3106,0.312,0.3043,0.3151,0.3061,0.3166,0.307,0.3175,0.3069,0.3006,0.3214,0.3094,0.3117,0.3133,0.3045,0.3167,0.305,0.3189,0.3066,0.3214,0.3076,0.2421,0.2567,0.25988,0.26368,0.24476,0.24618,0.2507,0.2524
40,0.2629,0.2987599999999999,0.302651,0.304231,0.2767,0.282962,0.2939699999999999,0.2942,0.3032,0.3152,0.3102,0.3117,0.3126,0.30698,0.3141799999999999,0.30848,0.315,0.3097,0.31488,0.3091,0.3036,0.3187,0.3102,0.31228,0.3137,0.307,0.3167,0.3076799999999999,0.3179,0.309,0.3188,0.3088,0.3035,0.32298,0.3109,0.31338,0.3153,0.3067,0.3184,0.3067,0.3204599999999999,0.3084,0.3232,0.3096799999999999,0.244862,0.2595,0.2623,0.2662439999999999,0.2466,0.2481,0.2528,0.2543
41,0.2669,0.3016,0.3055,0.306822,0.2803,0.2851,0.298,0.2967,0.3058,0.3173,0.312,0.3136,0.3147,0.3092,0.3164,0.3104,0.3165,0.3119,0.3168,0.3107,0.3059,0.32046,0.31186,0.3139,0.3154,0.3091,0.31806,0.30976,0.3193,0.31146,0.3205,0.3106,0.3054,0.32476,0.31296,0.3149,0.31756,0.3082,0.32,0.30886,0.32176,0.3104,0.3251,0.31116,0.2469,0.26156,0.264304,0.268464,0.2485,0.2505,0.2547,0.2572
42,0.2691,0.3047,0.309073,0.311913,0.2835519999999999,0.2878,0.3004,0.299307,0.3081399999999999,0.3193,0.3136,0.31524,0.3164,0.3113,0.3182,0.31214,0.3182,0.3137,0.31884,0.3128,0.3083,0.322,0.31384,0.3159,0.31694,0.3111399999999999,0.3197,0.3119,0.3208,0.3135,0.322,0.3131,0.30734,0.3264,0.3151,0.317,0.31904,0.31044,0.32164,0.31104,0.32314,0.3122,0.3266,0.3129,0.2495,0.2634,0.267516,0.2707,0.2505,0.252526,0.2567529999999999,0.2595
43,0.271708,0.3075199999999999,0.3116,0.315304,0.2861,0.2906,0.30348,0.3018,0.3102199999999999,0.321,0.3159,0.317,0.318,0.3135,0.3197199999999999,0.3141199999999999,0.3200199999999999,0.316,0.3201199999999999,0.315,0.3106,0.3232,0.31582,0.3178,0.3190199999999999,0.3132,0.3212,0.3141199999999999,0.3226,0.31542,0.3232199999999999,0.3150199999999999,0.3104,0.328,0.3169,0.3192199999999999,0.3207199999999999,0.3127,0.3234,0.3133,0.3245,0.314,0.3281199999999999,0.3146,0.2516,0.26552,0.2704,0.2724,0.2531,0.2546,0.2592,0.2613
44,0.2755,0.3102,0.314,0.319095,0.2889,0.29289,0.3055,0.304805,0.3126,0.3226,0.3174,0.3191,0.3201,0.3158,0.3215,0.316,0.3211,0.3183,0.3215,0.317,0.3127,0.3244,0.3178,0.3199,0.3211,0.315,0.3227,0.3162,0.3239,0.3172,0.3247,0.3166,0.3123,0.3293,0.3193,0.3214,0.3226,0.3147,0.3247,0.3153,0.3255,0.316,0.3294,0.3168,0.25399,0.2673,0.27294,0.2747,0.2554,0.2567,0.2608,0.2635
45,0.2794,0.31408,0.3158,0.322,0.2915440000000001,0.2967,0.30782,0.3083,0.3147,0.32438,0.3196,0.32128,0.32168,0.31786,0.3229,0.3181,0.3227,0.32028,0.323,0.3188,0.3147,0.326,0.32018,0.3219,0.3229,0.3172,0.32438,0.3184,0.32508,0.3187,0.32638,0.3186,0.3144,0.3304,0.3215,0.3233,0.3247,0.31658,0.32618,0.31728,0.32698,0.31788,0.3303,0.3187,0.2559,0.2694,0.2751,0.277796,0.257372,0.259,0.2628,0.2658
46,0.2820539999999999,0.31661,0.319,0.325,0.2947,0.3008,0.3102,0.311403,0.3168,0.32626,0.3214,0.323,0.3237,0.31986,0.3246,0.3208,0.3245,0.32246,0.3244,0.3209,0.3167,0.32756,0.3225,0.3238,0.3247,0.3195,0.3259,0.3204,0.3266,0.3214,0.3276,0.3208,0.3161,0.3321,0.3231,0.325,0.32646,0.31866,0.3276,0.3197,0.3285,0.32,0.3319,0.32076,0.257754,0.27261,0.2772,0.2803239999999999,0.2592,0.260954,0.2651739999999999,0.268
47,0.2856,0.31864,0.3231,0.3282679999999999,0.297936,0.304436,0.3125,0.3145,0.31894,0.3277,0.3235,0.32494,0.32554,0.3221,0.3264,0.323,0.3259,0.3242,0.32594,0.3227,0.3187,0.3289,0.3249,0.3259,0.32674,0.32144,0.3278,0.3223,0.328,0.32314,0.3289,0.3227399999999999,0.3182,0.3339,0.32514,0.3269,0.3278,0.3209,0.32914,0.32154,0.3304,0.3221,0.3335,0.3226,0.2599,0.2752,0.2798,0.2827,0.2618,0.263036,0.267408,0.2704
48,0.289,0.3211699999999999,0.3262,0.3307,0.300618,0.3076,0.3147,0.3176,0.3209,0.3291,0.3258,0.3267,0.3272,0.3242,0.3277199999999999,0.3249,0.3276,0.32602,0.3273,0.3243,0.3205,0.3306,0.3269,0.3281,0.32842,0.3238,0.3293,0.3241,0.3296,0.3254,0.3306,0.325,0.3203,0.33562,0.32692,0.3287199999999999,0.3293199999999999,0.3231,0.3308,0.32342,0.3319,0.32402,0.3352,0.3247199999999999,0.2625,0.27847,0.282476,0.284608,0.264,0.2652,0.2702,0.27205
49,0.2923,0.3238,0.3286,0.33255,0.3044,0.3112,0.3172,0.3211,0.3231,0.3302,0.3275,0.3282,0.3287,0.326,0.3291,0.3268,0.3292,0.3278,0.3288,0.3263,0.3224,0.3318,0.3289,0.3298,0.3303,0.3259,0.331,0.3262,0.3313,0.3275,0.332,0.3271,0.3227,0.3374,0.3291,0.3305,0.3311,0.3254,0.3321,0.325,0.3334,0.3264,0.3368,0.3268,0.2647,0.2809,0.2849,0.2869,0.2665,0.268,0.2734,0.2759
50,0.2961460000000001,0.3276,0.3304,0.3345,0.3075,0.314664,0.31997,0.325,0.32598,0.3319,0.32938,0.33,0.3301,0.3286,0.3305,0.3287,0.3311,0.3294,0.3301,0.32868,0.32568,0.3337,0.3304,0.3316,0.3316,0.3279,0.33238,0.3283,0.3326,0.3298,0.3339,0.32898,0.32488,0.339,0.3314,0.33208,0.3323,0.32758,0.33398,0.3273,0.3355,0.32898,0.33838,0.329,0.267382,0.2838,0.286812,0.289984,0.269182,0.2708,0.2753,0.27935
51,0.299664,0.33156,0.3327,0.336032,0.310364,0.317664,0.32304,0.3272,0.32846,0.3336,0.3313,0.3315,0.3317,0.331,0.3324,0.3306,0.3326,0.33166,0.3317,0.33066,0.32796,0.3354,0.332,0.3329,0.333,0.3305,0.3342,0.3299,0.3343,0.3322,0.33566,0.33136,0.3276,0.3409,0.33306,0.3339,0.3339,0.32996,0.33546,0.32946,0.3374,0.33166,0.3403,0.3312,0.2698,0.2863,0.289624,0.2922,0.271464,0.272964,0.2773,0.2824
52,0.303,0.3344,0.334983,0.3373,0.3132,0.320446,0.32601,0.3295,0.33084,0.33524,0.33304,0.3334,0.3336,0.33294,0.3338399999999999,0.33254,0.33424,0.3339,0.33344,0.3327,0.3308,0.3375,0.3338399999999999,0.3347,0.3349,0.33214,0.3356,0.3322,0.33624,0.3342,0.3376,0.33374,0.33034,0.34294,0.335,0.3358399999999999,0.3355,0.3323,0.3366,0.3315,0.33894,0.3339,0.3422,0.3341,0.2721,0.2889899999999999,0.2921,0.2941,0.275,0.2759,0.279163,0.28645
53,0.3061,0.33712,0.3386,0.3389,0.317328,0.3224560000000001,0.32868,0.332446,0.3334,0.3372,0.3346,0.3351,0.3352,0.335,0.3355,0.335,0.336,0.3363,0.33562,0.3342,0.33372,0.33922,0.336,0.337,0.3368,0.33472,0.337,0.33482,0.3382,0.336,0.3396,0.3353,0.33272,0.3448,0.33702,0.33742,0.3373,0.3345,0.33822,0.334,0.3405,0.33582,0.34422,0.3362,0.274928,0.2918,0.293748,0.295,0.2786,0.2791,0.281568,0.2895
54,0.3099,0.3389,0.3413,0.341405,0.32081,0.32591,0.33185,0.3361,0.3362,0.3383,0.3367,0.337,0.3366,0.3372,0.3374,0.3373,0.3375,0.338,0.3376,0.336,0.3361,0.3417,0.3386,0.3388,0.3385,0.3373,0.3385000000000001,0.3376,0.3396,0.338,0.3416,0.3373,0.3352,0.3462,0.3393,0.3391,0.339,0.3367,0.3399,0.3363,0.342,0.3382,0.3463,0.3385000000000001,0.27771,0.2938,0.2951,0.29626,0.2812,0.2822,0.284505,0.2925
55,0.314192,0.34108,0.3445,0.3457,0.3249,0.3298920000000001,0.3344,0.338944,0.33928,0.33998,0.33818,0.3386,0.33858,0.34,0.33888,0.3396,0.3393,0.34026,0.3396,0.3384,0.33908,0.3436,0.3403,0.3407,0.3402,0.3398,0.3402,0.34018,0.3411,0.3398,0.3438,0.3391,0.3381,0.3479,0.34138,0.34098,0.34088,0.33928,0.34208,0.33908,0.34388,0.3401,0.3479,0.3405,0.2803,0.2959,0.2965,0.298452,0.284192,0.285192,0.287776,0.2951
56,0.317374,0.34311,0.3465,0.3495740000000001,0.328974,0.333674,0.33669,0.3421,0.3414,0.34206,0.34046,0.341,0.3405,0.34216,0.34036,0.3424,0.341,0.3427,0.3421,0.3404,0.3416,0.3456,0.34256,0.3425,0.34246,0.34232,0.3424,0.3428,0.3424,0.342,0.3457,0.34166,0.34176,0.3494,0.3432,0.3433,0.3433,0.34196,0.34396,0.3421,0.3453,0.34256,0.34946,0.3424,0.2825,0.2983,0.298184,0.300144,0.286274,0.2881,0.2908,0.29745
57,0.3216,0.3458799999999999,0.3485,0.352778,0.3325,0.337512,0.33906,0.3445,0.3440399999999999,0.3439,0.3429399999999999,0.343,0.34254,0.3443,0.3419,0.34564,0.343,0.34484,0.3439,0.3428,0.3445,0.3474,0.3449,0.3448,0.3443,0.34564,0.344,0.34564,0.3443,0.3449399999999999,0.3478,0.3438,0.3451,0.35074,0.3456,0.3462,0.3459399999999999,0.345,0.3457,0.34514,0.3472,0.3444399999999999,0.3512,0.34464,0.2853,0.2998,0.3,0.3015359999999999,0.2885,0.2904,0.2938,0.2994
58,0.325538,0.3483699999999999,0.3509,0.3552689999999999,0.336538,0.3415759999999999,0.3426,0.347,0.3477,0.34574,0.34562,0.3453,0.3446,0.3476,0.3438199999999999,0.3482,0.3448199999999999,0.3473,0.3458199999999999,0.3454,0.34762,0.34962,0.34672,0.3474199999999999,0.3464199999999999,0.3485,0.3455199999999999,0.34872,0.3462,0.3471,0.3498,0.347,0.3474,0.3523,0.3478199999999999,0.3487,0.34862,0.3479,0.3477,0.34812,0.3499199999999999,0.34712,0.3528199999999999,0.3475,0.2875379999999999,0.3016,0.3018,0.3028,0.2905,0.293138,0.2966,0.3012
59,0.32992,0.3519,0.35326,0.35866,0.3409399999999999,0.3440199999999999,0.3468,0.34954,0.35,0.3478,0.3475,0.3476,0.3467,0.3502,0.3458,0.351,0.3464,0.3497,0.348,0.3486,0.3504,0.3513,0.3491,0.3493,0.3487,0.3515,0.3477,0.352,0.348,0.3498,0.3514,0.3492,0.3499,0.3542,0.3516,0.3513,0.3518,0.3507,0.351,0.351,0.3524,0.3502,0.3547,0.3502,0.2905,0.3034,0.30332,0.3041,0.2928,0.2952,0.29916,0.3026
60,0.3332,0.3552,0.3566,0.3612,0.345402,0.348202,0.3497,0.3521,0.353,0.3494,0.3506,0.3502,0.3493799999999999,0.35308,0.34808,0.3542,0.34868,0.35278,0.35008,0.3512399999999999,0.354,0.35308,0.35158,0.35168,0.3515,0.3548,0.35,0.3551,0.3504599999999999,0.3535,0.3531,0.35158,0.35356,0.356,0.35458,0.3547399999999999,0.3546,0.35428,0.35388,0.3543,0.35508,0.3527,0.3565,0.3528,0.292902,0.3049,0.3053,0.3054,0.295502,0.297702,0.301031,0.3042
61,0.337184,0.35766,0.360182,0.3635,0.3496,0.351784,0.35234,0.3547,0.3557,0.3521,0.35376,0.35286,0.35226,0.35606,0.35046,0.3573,0.3509,0.35626,0.3525,0.35436,0.3568,0.3548,0.35466,0.35372,0.3536,0.35756,0.3529,0.3582,0.353,0.35696,0.35486,0.3548,0.35626,0.3581,0.3572,0.35786,0.3570199999999999,0.35696,0.3583,0.3579,0.35776,0.356,0.35856,0.35596,0.2956,0.30686,0.307,0.3066,0.298,0.3008,0.303102,0.3059
62,0.3428319999999999,0.36039,0.364193,0.3646,0.354566,0.3553,0.3551,0.3575,0.35864,0.35464,0.35624,0.35564,0.355,0.35914,0.35364,0.3600399999999999,0.35324,0.35944,0.35484,0.3572,0.35964,0.3571,0.3577,0.35606,0.3561,0.3602,0.35634,0.36074,0.35584,0.35958,0.357,0.35814,0.3595399999999999,0.3598,0.3602,0.36034,0.3606,0.36074,0.3616,0.3613,0.3604,0.3597,0.36034,0.3590399999999999,0.2984659999999999,0.3092,0.3086,0.3076,0.3007,0.303266,0.3062,0.30765
63,0.3462,0.3633,0.3675,0.366024,0.358448,0.359448,0.3579,0.360544,0.3621,0.35684,0.3595,0.35892,0.35832,0.362,0.35662,0.3625,0.35592,0.36322,0.35724,0.3605,0.3626,0.359,0.3603,0.3598,0.3599,0.3628,0.3597,0.3635,0.3586,0.3635,0.3588,0.36112,0.3625,0.3614,0.3626,0.3633,0.36454,0.36342,0.3643,0.3642,0.3626,0.36262,0.3624,0.3618,0.3016,0.3116,0.3105,0.3101879999999999,0.3039,0.3057,0.309644,0.3095
64,0.35053,0.3663,0.3707,0.368415,0.36233,0.36403,0.36185,0.363385,0.3652,0.3589,0.3626,0.3627,0.362,0.3647,0.3604,0.3646,0.359,0.3674,0.3595,0.3638,0.3654,0.3609,0.363,0.3638,0.3637,0.3657,0.3631,0.366,0.3613,0.3678,0.3604,0.3644,0.3656,0.3633,0.3651,0.3663,0.3675,0.3658,0.3673,0.3667,0.365,0.3658,0.3638,0.3658,0.30473,0.3141,0.3128,0.3135,0.30713,0.3089,0.3128,0.3112
65,0.3559240000000001,0.3695,0.373726,0.3715,0.3658,0.3684240000000001,0.36494,0.3664,0.3677,0.3607,0.36618,0.3659,0.3657,0.36766,0.36418,0.3675,0.36198,0.37078,0.3611,0.3672,0.369,0.36288,0.3661,0.36688,0.36726,0.36878,0.3659,0.36836,0.36338,0.3706,0.362,0.3678,0.36878,0.3651,0.3681,0.3694,0.37028,0.36898,0.36998,0.3693,0.3677,0.36976,0.3657,0.36918,0.3077,0.317,0.315,0.3164,0.3102,0.311912,0.3152,0.3141
66,0.361482,0.3723,0.377537,0.375197,0.369494,0.3724,0.36879,0.3693,0.3716,0.36302,0.37,0.3702,0.3693,0.3708,0.3674,0.3714200000000001,0.3643,0.37486,0.3635,0.3711,0.3726800000000001,0.3646,0.37006,0.3704,0.3703200000000001,0.3724,0.36796,0.37176,0.3657,0.37466,0.3637,0.3717,0.37226,0.367,0.37196,0.3726,0.3734,0.37256,0.37246,0.3725,0.3704,0.3734,0.3673,0.3734,0.3111,0.3195,0.3179040000000001,0.3208,0.3132,0.315694,0.318157,0.3165
67,0.3673040000000001,0.3758,0.3806,0.3803,0.3734,0.375876,0.3723,0.372564,0.37464,0.36494,0.37374,0.3743,0.37254,0.3739,0.3701399999999999,0.3746,0.36704,0.37814,0.3656,0.37474,0.376,0.3669,0.37464,0.37454,0.3732,0.37544,0.37128,0.37474,0.36834,0.37848,0.36614,0.3762,0.37564,0.36894,0.3759,0.377,0.3768,0.3759,0.37474,0.3753,0.3736,0.3768,0.36904,0.37634,0.314176,0.32194,0.320616,0.324056,0.3157,0.319176,0.3215,0.32
68,0.372,0.3795699999999999,0.3833589999999999,0.3841,0.3781579999999999,0.380358,0.3760599999999999,0.3758619999999999,0.3782199999999999,0.3671199999999999,0.3783,0.3772199999999999,0.3756199999999999,0.3776199999999999,0.37304,0.3779,0.3704,0.3820199999999999,0.3675,0.3798,0.3789,0.369,0.38014,0.3789,0.3766199999999999,0.3781199999999999,0.3744,0.3782199999999999,0.3716,0.3818199999999999,0.3684199999999999,0.3802199999999999,0.3781,0.3712,0.3811199999999999,0.3807,0.3795,0.3790199999999999,0.3776,0.3782,0.37632,0.3799,0.3712,0.3802,0.3171,0.3242,0.3234,0.3278,0.3186,0.3226,0.3245,0.3235
69,0.3765,0.3843999999999999,0.3856699999999999,0.3871,0.38304,0.3848999999999998,0.38,0.37893,0.3828,0.3693,0.3826999999999999,0.381,0.3794999999999999,0.3812,0.3758,0.3818,0.3732999999999999,0.386,0.3695999999999999,0.384,0.3822999999999999,0.3708,0.3855999999999999,0.3836999999999999,0.3819,0.3816,0.3768,0.3824,0.3746,0.3853,0.3701999999999998,0.3846999999999999,0.3825,0.3727999999999999,0.3854,0.3842999999999999,0.3829,0.3821,0.3801999999999999,0.382,0.3789,0.3833,0.3727,0.3832,0.3207799999999999,0.3264999999999999,0.3276199999999999,0.33,0.3215,0.32544,0.3276699999999999,0.3272999999999998
70,0.3826439999999999,0.3879,0.3891,0.3911219999999999,0.3869659999999998,0.3903219999999999,0.3837399999999999,0.382779,0.3869,0.37178,0.38686,0.3858,0.3831,0.3849,0.3785,0.3859,0.37598,0.39006,0.37208,0.3884,0.38668,0.37288,0.3882,0.3877,0.386,0.38488,0.3802,0.3863,0.3783,0.3888,0.37238,0.38838,0.38638,0.3751,0.38816,0.38768,0.38628,0.3847,0.38298,0.3858,0.381,0.3863,0.37538,0.3868,0.3242219999999999,0.32953,0.3319,0.3338319999999999,0.3258,0.329,0.330841,0.3308
71,0.388304,0.3918,0.392092,0.3947,0.391904,0.3956,0.38894,0.3886,0.3898599999999999,0.3740199999999999,0.3903,0.3893199999999999,0.3873599999999999,0.3886599999999999,0.3812199999999999,0.3893,0.3785,0.3941,0.3746,0.3917,0.3898,0.3751599999999999,0.3912599999999999,0.3912599999999999,0.3896,0.3880599999999999,0.3842599999999999,0.3893,0.3816,0.3924,0.3747599999999999,0.3918599999999999,0.3894,0.3772,0.391,0.3911599999999999,0.3895,0.3875,0.3856,0.3884,0.383,0.389,0.3772599999999999,0.3898599999999999,0.3273,0.3326,0.3379279999999999,0.3377239999999999,0.330004,0.332104,0.3337,0.3347
72,0.3942719999999999,0.39629,0.396603,0.3979,0.397086,0.398986,0.3933,0.3938,0.3931,0.3768,0.39354,0.3937199999999999,0.39104,0.3914,0.3854,0.3938,0.3819,0.39764,0.3773,0.3946,0.3936,0.3773,0.395,0.3941,0.39274,0.3908399999999999,0.38814,0.393,0.38404,0.3959,0.3775,0.3943399999999999,0.3931799999999999,0.3796,0.3939399999999999,0.39414,0.3925,0.39074,0.38854,0.39204,0.3853,0.3923399999999999,0.3797,0.39324,0.331,0.3374799999999999,0.3422,0.3394,0.3334,0.3348859999999999,0.3367,0.33815
73,0.4016,0.40304,0.3997560000000001,0.4001,0.401968,0.403536,0.397,0.398526,0.3966599999999999,0.3802199999999999,0.3973,0.3968,0.3945,0.3949,0.3882199999999999,0.3979,0.38452,0.4018,0.3808,0.3979,0.39712,0.3804,0.3973,0.3975,0.3956,0.3947199999999999,0.39142,0.3962199999999999,0.38702,0.3995,0.3804,0.39774,0.3972199999999999,0.3815,0.3965,0.3964,0.3957,0.3948199999999999,0.3911,0.39614,0.3881,0.3954199999999999,0.382,0.3959,0.3354,0.3427,0.3465,0.3423159999999999,0.3377400000000001,0.339168,0.341054,0.3423
74,0.40835,0.4079,0.4048,0.402625,0.4075,0.4086,0.40265,0.4016,0.4008,0.3838,0.4001,0.3994,0.3968,0.3989,0.3915,0.4018,0.3877,0.4058,0.3838,0.4011,0.4016,0.3834,0.4003,0.3992,0.3984,0.3981,0.3947,0.4,0.3911,0.4034,0.3835,0.401,0.4017,0.3845,0.3995,0.3987,0.3984,0.3991,0.3944,0.3997,0.3909,0.3994,0.3847,0.3986,0.34035,0.34685,0.3491,0.3487,0.3421,0.3423,0.3440249999999999,0.3453
75,0.4169959999999999,0.41098,0.4078,0.4055479999999999,0.4129319999999999,0.4129639999999999,0.4086,0.405124,0.40498,0.38708,0.40268,0.40158,0.4003,0.4031,0.3948,0.406,0.39118,0.41046,0.3869,0.4052,0.40458,0.386,0.4027,0.40218,0.40138,0.40256,0.3968,0.405,0.39338,0.40688,0.3862,0.4042,0.40626,0.3865,0.402,0.4016,0.4006,0.40408,0.39728,0.404,0.39418,0.4027,0.3871,0.4016,0.3439319999999999,0.3508,0.351512,0.351392,0.3465,0.3459319999999999,0.3479959999999999,0.3479
76,0.4243,0.4137,0.410094,0.409707,0.418114,0.4176,0.41369,0.4103,0.4089,0.39056,0.4065,0.40486,0.40296,0.4076,0.39782,0.411,0.3944,0.4139,0.39006,0.4093,0.40906,0.38836,0.40586,0.4053,0.40366,0.4072,0.39936,0.41006,0.39586,0.41076,0.3886,0.4069,0.41016,0.3894,0.4051,0.40476,0.4035,0.40826,0.4001200000000001,0.4081,0.3968,0.40666,0.39,0.40416,0.3504,0.3558,0.3547,0.354184,0.3517,0.3501,0.3534,0.3514
77,0.4331959999999999,0.41764,0.4145,0.413898,0.424296,0.4225,0.41816,0.416022,0.4126800000000001,0.393,0.4099,0.4076,0.40604,0.41184,0.401,0.41574,0.39704,0.41884,0.39254,0.41294,0.4128,0.3908,0.40914,0.408,0.407,0.4115400000000001,0.4019,0.4137,0.3985,0.41474,0.39044,0.41044,0.41464,0.3925,0.40814,0.4079,0.40694,0.41274,0.40314,0.4121,0.3999,0.41034,0.3927,0.4075,0.355688,0.3621200000000001,0.3584,0.3582,0.3567,0.3553,0.3571,0.355
78,0.4381340000000002,0.4224699999999999,0.42,0.420089,0.4325560000000001,0.4268,0.4223,0.421671,0.4178199999999999,0.3959,0.41462,0.4109,0.4090199999999999,0.41712,0.4035,0.4200199999999999,0.4,0.4229199999999999,0.3945,0.4183799999999999,0.4179,0.3928,0.41344,0.41172,0.40972,0.4167,0.4042199999999999,0.4183,0.4002,0.4175,0.39252,0.4146,0.4196,0.3947,0.4114,0.4116,0.4099199999999999,0.4172,0.4058,0.41762,0.4023199999999999,0.41412,0.3952199999999999,0.4107,0.3611,0.3674699999999999,0.362748,0.3617,0.3612,0.360678,0.361009,0.35895
79,0.4449,0.4271,0.4259,0.42486,0.44296,0.4317,0.4259,0.4323199999999997,0.4224,0.3994,0.4188,0.4153,0.4125,0.4227,0.4069,0.4236,0.4028,0.4282,0.3972,0.4228,0.4233,0.3949,0.418,0.4155,0.4122,0.4216,0.4067,0.4224,0.4026,0.4217,0.3952,0.4184,0.425,0.3976,0.4145,0.4154,0.4131,0.4216,0.408,0.4222,0.4052,0.4178,0.3986,0.4146,0.36696,0.3714,0.36686,0.3666,0.3659,0.3667,0.36518,0.3647
80,0.452842,0.43356,0.4319909999999999,0.4304,0.450342,0.437242,0.4315400000000001,0.4401380000000001,0.42768,0.4021,0.42258,0.4186,0.41598,0.4274,0.40998,0.42856,0.4053,0.43186,0.39998,0.427,0.42778,0.39748,0.4212,0.4185,0.41536,0.42696,0.4091,0.4263,0.4054,0.42558,0.3975,0.4227,0.42998,0.4005,0.4181,0.41838,0.4172,0.42778,0.41058,0.42726,0.40808,0.42188,0.4017,0.41896,0.371484,0.37423,0.371344,0.3713,0.371184,0.371342,0.369551,0.37375
81,0.4617479999999999,0.4404399999999998,0.4406,0.4443859999999999,0.457624,0.4437,0.442,0.4461,0.4324599999999999,0.4048599999999999,0.4272399999999998,0.4236199999999999,0.4203599999999999,0.4327599999999999,0.4126199999999999,0.4335599999999999,0.4081599999999999,0.4360199999999999,0.4027599999999999,0.4307199999999999,0.4322,0.4002,0.4246,0.4226,0.4192,0.4314,0.4122599999999999,0.4314,0.4087599999999999,0.4297799999999998,0.4003,0.4263199999999999,0.4351599999999999,0.4039599999999999,0.4220599999999999,0.4216599999999999,0.4198599999999999,0.4327,0.4131599999999999,0.4319,0.411,0.4269599999999999,0.4051,0.4240599999999999,0.3794,0.3781,0.376984,0.3735,0.3764,0.3754479999999999,0.3738,0.3803
82,0.4715299999999997,0.4456,0.445013,0.4503,0.4641059999999999,0.4512299999999997,0.4529,0.4557,0.4372,0.4083,0.4322799999999999,0.4284,0.4244799999999999,0.43654,0.4158,0.43804,0.4108,0.44064,0.4056,0.43484,0.43804,0.40274,0.4288,0.4260799999999999,0.42324,0.43504,0.4162,0.43604,0.4114,0.4353,0.4031,0.4312,0.44104,0.40814,0.4265799999999999,0.4251,0.4236399999999999,0.4375799999999999,0.4165,0.4366,0.4139,0.4326,0.4091,0.42924,0.3855119999999999,0.381,0.382896,0.3761,0.3826,0.3823,0.3797,0.3882
83,0.480976,0.4568,0.4594719999999999,0.4594319999999999,0.472588,0.461088,0.46188,0.4605,0.44344,0.4113,0.43732,0.4335199999999999,0.4289,0.442,0.4191,0.4430199999999999,0.4143,0.44592,0.4088199999999999,0.4406,0.44492,0.4057199999999999,0.4333,0.43084,0.4274,0.4415999999999999,0.4195399999999999,0.4409,0.41662,0.4402,0.40662,0.4362199999999999,0.446,0.4127,0.4319199999999999,0.4294199999999999,0.4274199999999999,0.44304,0.4208199999999999,0.44064,0.4180399999999999,0.4387199999999999,0.413,0.4341399999999999,0.394476,0.3872199999999999,0.3865,0.3786,0.391364,0.389164,0.3880639999999999,0.3935
84,0.4895099999999999,0.4677,0.468035,0.4726449999999996,0.4784699999999999,0.4687599999999998,0.4700999999999999,0.4678,0.4504,0.4144,0.4426,0.4383,0.4336,0.4496,0.4231,0.45,0.4186,0.452,0.4128,0.4463,0.451,0.4097,0.4382,0.4359,0.4316,0.4475,0.4241,0.4466,0.421,0.4456,0.4101,0.4408,0.452,0.4164,0.4376,0.4346,0.432,0.4488,0.4251,0.4467,0.4222,0.4434,0.4168,0.4401,0.4014,0.3926,0.3891,0.382,0.39891,0.3967699999999999,0.3952349999999999,0.3969
85,0.4963519999999999,0.47614,0.4849,0.4799340000000002,0.4870519999999999,0.4782519999999999,0.48022,0.4784280000000001,0.45706,0.41978,0.44788,0.4441,0.43848,0.4566,0.4293,0.4574,0.42356,0.4566,0.4155,0.45108,0.45768,0.41348,0.44278,0.44018,0.4368,0.45588,0.4303,0.4548,0.4258,0.45226,0.41418,0.44764,0.45998,0.42,0.44306,0.439,0.43636,0.45808,0.42978,0.45368,0.42736,0.4501,0.42008,0.44706,0.4095,0.39828,0.3919,0.3889,0.4089,0.4073,0.4066,0.4013
86,0.5074700000000001,0.49101,0.495857,0.489417,0.49737,0.489102,0.4898,0.487089,0.4634800000000001,0.42316,0.4526,0.4484,0.44446,0.4643,0.4348,0.46406,0.42916,0.4623,0.4211,0.4571200000000001,0.4646800000000001,0.42056,0.44946,0.44576,0.44276,0.46366,0.43512,0.4624,0.43176,0.45982,0.421,0.4536,0.4655,0.42656,0.44886,0.44522,0.4426,0.46586,0.4351,0.46296,0.4332,0.4580000000000002,0.42696,0.4523200000000001,0.4164360000000001,0.4061200000000001,0.4011439999999999,0.397912,0.416068,0.417302,0.4148079999999998,0.407
87,0.521048,0.50928,0.5024,0.498408,0.5080959999999999,0.5052479999999999,0.5005800000000001,0.4997479999999999,0.47124,0.4266399999999999,0.45814,0.4538599999999999,0.45004,0.4729399999999999,0.4427,0.4719399999999999,0.43604,0.46934,0.4254799999999999,0.4621799999999999,0.4717,0.4276,0.45564,0.4524799999999999,0.44924,0.4719999999999998,0.44064,0.4721199999999999,0.4359,0.4663599999999999,0.4274199999999999,0.4603799999999999,0.4741,0.43254,0.4555,0.4528399999999999,0.44974,0.4745399999999999,0.4441,0.47184,0.4412399999999999,0.4661,0.4325,0.4588,0.4289159999999999,0.41,0.409856,0.4072,0.424332,0.426316,0.4218,0.4119
88,0.5360940000000002,0.51691,0.510253,0.5070919999999998,0.523298,0.5245800000000004,0.5217600000000001,0.5194829999999999,0.4785199999999999,0.4320199999999999,0.4658199999999999,0.4628199999999999,0.45864,0.4811199999999999,0.4485,0.4807,0.4416199999999999,0.4750799999999999,0.4318,0.46962,0.4804,0.4342199999999999,0.46462,0.461,0.45914,0.4828999999999999,0.45002,0.4811,0.4454,0.47364,0.4347199999999999,0.4679199999999999,0.48224,0.43814,0.4644399999999999,0.4626199999999998,0.4616,0.4852,0.45146,0.48274,0.4482,0.4734,0.43732,0.4679199999999999,0.4431,0.4143699999999999,0.4147,0.4175,0.438398,0.4374840000000004,0.4287,0.4199
89,0.5532600000000001,0.5268,0.5208800000000001,0.5169,0.53638,0.5411800000000001,0.5423,0.53232,0.4875,0.4375,0.4751,0.4716,0.4673,0.4893,0.456,0.4906,0.4509,0.4846,0.438,0.4778,0.4886,0.4398,0.4747,0.4738,0.4718,0.4929,0.4614,0.4915,0.4557,0.4819,0.4427,0.477,0.4909,0.4473,0.4756,0.4749,0.4735,0.4954,0.4672,0.4933,0.4599,0.4824,0.4487,0.4768,0.4546200000000001,0.42,0.4215,0.43066,0.4493,0.4482,0.43669,0.4263
90,0.571448,0.5373500000000001,0.5300030000000001,0.537881,0.5531959999999999,0.5626,0.55347,0.555018,0.49712,0.44376,0.4856800000000001,0.4818,0.4760200000000001,0.49848,0.4681,0.49744,0.462,0.4933,0.44534,0.48866,0.49776,0.44988,0.4875600000000001,0.48498,0.48118,0.5028000000000001,0.47206,0.49916,0.46568,0.49278,0.45198,0.49052,0.50082,0.45776,0.48948,0.4894,0.48496,0.5063000000000001,0.47674,0.50378,0.47292,0.4915800000000001,0.45904,0.49268,0.466162,0.42716,0.432492,0.4409880000000001,0.462524,0.4582479999999999,0.4469,0.4341
91,0.5942,0.5480200000000001,0.5520120000000001,0.5754720000000001,0.5766320000000001,0.5792200000000003,0.5692800000000001,0.567132,0.50822,0.44986,0.4958600000000002,0.4900800000000001,0.48602,0.50812,0.47742,0.50836,0.4696000000000002,0.50642,0.45146,0.4993200000000001,0.50922,0.4592400000000001,0.4983000000000002,0.49626,0.4915800000000001,0.5122400000000001,0.48086,0.5117600000000001,0.4740400000000001,0.5067200000000001,0.45956,0.50132,0.5149600000000001,0.4707200000000001,0.5021800000000001,0.5013,0.49812,0.5182200000000002,0.4880400000000001,0.5155800000000001,0.4815800000000001,0.50722,0.4716000000000002,0.504,0.482044,0.4406000000000002,0.443804,0.449964,0.474744,0.4671,0.454832,0.4464
92,0.6184780000000001,0.5691900000000001,0.594323,0.5986150000000001,0.605026,0.592426,0.5923400000000002,0.580157,0.52264,0.4572,0.5075400000000003,0.5029800000000001,0.4978,0.52114,0.48684,0.5231800000000004,0.4778,0.52048,0.4584,0.5130200000000001,0.5237800000000001,0.4694,0.5128400000000001,0.5083600000000003,0.5043000000000003,0.5235400000000006,0.49144,0.5252800000000001,0.48324,0.5191800000000004,0.4695200000000001,0.5162200000000001,0.5308200000000002,0.48614,0.5156,0.5134,0.5101600000000002,0.5295,0.5022800000000001,0.52844,0.4945200000000002,0.5239800000000004,0.4873,0.5190800000000001,0.4945080000000001,0.4602800000000001,0.4589,0.4673680000000001,0.488726,0.475826,0.4639060000000001,0.46105
93,0.643116,0.6211599999999999,0.6182360000000001,0.6154,0.6292399999999999,0.616716,0.61318,0.5975719999999994,0.54172,0.4662999999999999,0.52092,0.51402,0.5094199999999999,0.5359200000000001,0.49692,0.53732,0.4852599999999999,0.5333599999999998,0.4673999999999999,0.52596,0.5404,0.4866399999999999,0.52752,0.52362,0.5189399999999998,0.5374399999999999,0.51132,0.5394399999999998,0.5022399999999999,0.5359,0.4884,0.53104,0.54614,0.49842,0.5357,0.53302,0.5274399999999999,0.54596,0.5187,0.54536,0.5132599999999999,0.54018,0.4995799999999999,0.53702,0.5114559999999999,0.4748199999999999,0.4814399999999998,0.4837479999999999,0.502224,0.49174,0.480048,0.474
94,0.6798899999999997,0.63745,0.6411,0.6762,0.65538,0.6328299999999998,0.6287,0.644655,0.5617,0.4883,0.5338,0.5289,0.5227,0.559,0.5117,0.5575,0.5036,0.5502,0.4886,0.5409,0.5657,0.4981,0.5422,0.5378,0.5332,0.5613,0.5229,0.5611,0.514,0.5524,0.5,0.549,0.5701,0.5195,0.5544,0.5488,0.5443,0.5713,0.535,0.5629,0.5305,0.5564,0.5207,0.5558,0.5368799999999999,0.502,0.5242599999999997,0.5401199999999994,0.51767,0.5066299999999998,0.4951,0.4866
95,0.7193639999999992,0.66912,0.7510839999999993,0.7824079999999999,0.6865199999999994,0.6637879999999997,0.65712,0.6652919999999999,0.5923200000000001,0.51978,0.5534600000000001,0.5472600000000001,0.5431600000000002,0.5892,0.5315200000000001,0.58658,0.5263200000000001,0.57338,0.51978,0.5601,0.5897600000000001,0.51246,0.5589600000000001,0.55418,0.5486000000000001,0.58658,0.5382400000000002,0.5851200000000001,0.5312400000000003,0.57342,0.51338,0.5640400000000001,0.5975800000000002,0.5306799999999999,0.56758,0.56596,0.5609800000000003,0.59174,0.55542,0.5862200000000002,0.549,0.5768,0.5316799999999999,0.5698799999999999,0.5606439999999998,0.5513,0.5896479999999988,0.630732,0.5314,0.5202759999999995,0.515848,0.5464
96,0.784848,0.8386699999999974,0.8587680000000015,0.8913539999999999,0.727378,0.716426,0.7087399999999998,0.7102719999999993,0.6348999999999998,0.5390799999999999,0.5829199999999999,0.5781199999999999,0.5762799999999996,0.6231399999999998,0.5713399999999998,0.6192599999999999,0.5648599999999999,0.6039199999999999,0.53926,0.59136,0.6310799999999993,0.5361199999999996,0.5868,0.5838799999999998,0.5808799999999987,0.62162,0.5720199999999996,0.6141199999999996,0.5646799999999993,0.6025799999999999,0.5364,0.5928199999999993,0.63266,0.5434799999999999,0.5925199999999999,0.5919399999999998,0.5873999999999997,0.6222199999999994,0.5812799999999992,0.617,0.5699599999999999,0.6012,0.5442399999999998,0.5950999999999997,0.589708,0.6750299999999994,0.6809319999999993,0.661324,0.554462,0.540562,0.5632349999999999,0.6006
97,0.8978519999999998,0.98974,0.9578,0.9096,0.8472,0.8239799999999998,0.8746999999999995,0.9294059999999998,0.7232799999999999,0.5560199999999998,0.64094,0.6353599999999998,0.6271999999999998,0.7156799999999998,0.6154199999999995,0.6935999999999989,0.6020599999999998,0.6722599999999985,0.5616399999999998,0.6516599999999994,0.7194599999999997,0.5609199999999998,0.6459599999999999,0.6369199999999997,0.6310799999999998,0.7009399999999989,0.6219999999999998,0.685539999999999,0.61378,0.6707999999999987,0.5648399999999999,0.65514,0.7223199999999986,0.5660199999999999,0.6508399999999983,0.6454599999999998,0.6403399999999978,0.6975399999999993,0.6278399999999994,0.6853599999999985,0.6219199999999997,0.6716599999999995,0.5710199999999999,0.6616999999999988,0.6398959999999996,0.755019999999999,0.7162520000000001,0.6938999999999989,0.6339519999999997,0.6266,0.7255859999999998,0.7645
98,1.073218,1.04438,0.9715560000000002,0.932409,1.0179160000000005,1.2088980000000005,1.1245300000000005,1.132378000000002,0.91484,0.5881599999999999,0.7555799999999997,0.7361399999999978,0.7194799999999996,0.8708199999999999,0.6900999999999986,0.8580399999999995,0.6659199999999997,0.8127199999999992,0.59354,0.7906399999999995,0.90772,0.5930799999999999,0.7679599999999995,0.7481999999999996,0.7300199999999997,0.8620399999999996,0.69942,0.8577599999999993,0.6704599999999996,0.8182599999999987,0.6016599999999999,0.7970799999999999,0.92544,0.60298,0.7762199999999999,0.7539599999999995,0.7399999999999999,0.8871999999999989,0.7041999999999997,0.8635399999999999,0.6787599999999998,0.82824,0.6109399999999999,0.8026799999999998,0.912270000000002,0.8301399999999983,0.8312520000000001,0.803624,0.9461320000000008,0.940658000000001,0.939796,0.86395
