percentiles,hv10,hv120,hv150,hv180,hv20,hv30,hv60,hv90,ivcall10,ivcall1080,ivcall120,ivcall150,ivcall180,ivcall20,ivcall270,ivcall30,ivcall360,ivcall60,ivcall720,ivcall90,ivmean10,ivmean1080,ivmean120,ivmean150,ivmean180,ivmean20,ivmean270,ivmean30,ivmean360,ivmean60,ivmean720,ivmean90,ivput10,ivput1080,ivput120,ivput150,ivput180,ivput20,ivput270,ivput30,ivput360,ivput60,ivput720,ivput90,phv10,phv120,phv150,phv180,phv20,phv30,phv60,phv90
0,0.0611639999999999,0.134,0.1405,0.1492,0.086646,0.098882,0.12334,0.127994,0.138479,0.158458,0.159774,0.160779,0.1614,0.1425,0.162858,0.146579,0.163979,0.1559,0.1641,0.1594,0.1451579999999999,0.1806,0.166179,0.167679,0.169879,0.1484579999999999,0.1731579999999999,0.153379,0.176079,0.1616,0.1806,0.1646,0.141274,0.187179,0.1694,0.171,0.173058,0.144779,0.1767,0.151058,0.1802369999999999,0.162816,0.187179,0.1681,0.089946,0.1242,0.1257,0.1277,0.100682,0.1069,0.115913,0.12225
1,0.0727,0.1398,0.147788,0.153682,0.0935,0.106464,0.12708,0.1372,0.144958,0.164,0.1644,0.1649,0.165758,0.148574,0.1694,0.1524,0.170158,0.1608,0.168158,0.163516,0.152,0.1852,0.1716,0.172758,0.174058,0.1556,0.1776,0.159058,0.179916,0.1672,0.1852,0.1705,0.150574,0.1912,0.1744,0.176,0.1775,0.153716,0.1811,0.158658,0.1839,0.1684,0.1912,0.172258,0.09782,0.12768,0.129024,0.134068,0.1069,0.112564,0.119842,0.1252
2,0.081046,0.14515,0.1515,0.155073,0.099746,0.1142919999999999,0.1315,0.139347,0.1501,0.1673,0.1678,0.1673,0.169,0.1528,0.171937,0.156237,0.173337,0.163937,0.170237,0.1668,0.1564,0.187937,0.1747,0.1756,0.1766,0.16,0.1794,0.163237,0.181937,0.170074,0.1878,0.173,0.1553,0.195074,0.1785,0.1806,0.1821,0.1592,0.184437,0.1634,0.1863,0.171437,0.1949,0.1751,0.1038,0.13359,0.135836,0.140552,0.1113919999999999,0.1171,0.1242,0.1285
3,0.086428,0.1496,0.1562,0.1569,0.1061,0.1205,0.13458,0.1421,0.1533,0.170216,0.169916,0.1702,0.171,0.156616,0.1741,0.159132,0.1754,0.166816,0.1722,0.1693,0.16,0.1903,0.1766,0.1778,0.1788,0.1629,0.181016,0.165516,0.183616,0.1718,0.19,0.175,0.159732,0.1983,0.181,0.1826,0.184316,0.162316,0.187216,0.1665,0.1889,0.173516,0.197916,0.178,0.1078,0.13602,0.141,0.145368,0.1157,0.1207,0.127684,0.1309
4,0.09181,0.15225,0.1578,0.1594549999999999,0.1112099999999999,0.125,0.1377,0.144145,0.1565949999999999,0.1723,0.1717,0.172295,0.1726,0.1587,0.175795,0.161995,0.177,0.1694,0.1743,0.1712,0.16279,0.192795,0.178,0.179395,0.1804,0.165195,0.1834,0.1677,0.1855,0.1734,0.1924,0.1765,0.162495,0.2004,0.1827,0.1845,0.1859,0.1656,0.189395,0.168895,0.191695,0.1759,0.200295,0.1804899999999999,0.1116,0.1397499999999999,0.1438,0.1478,0.1189,0.1238099999999999,0.13,0.1347
5,0.0956919999999999,0.1547599999999999,0.1596,0.1608,0.1154,0.1285919999999999,0.14054,0.146894,0.1588,0.1749,0.1736,0.1741,0.1747,0.161374,0.1772,0.1647,0.179,0.1715,0.1761,0.1727,0.1647,0.1946,0.1796,0.180474,0.1817,0.167074,0.1851,0.1694,0.187374,0.175074,0.1943,0.1782,0.164974,0.202274,0.1842,0.186074,0.188,0.1678,0.191174,0.1704,0.1938,0.177574,0.2018,0.1828,0.114,0.1429,0.146172,0.149752,0.1213,0.126492,0.1321,0.1379
6,0.0982,0.15791,0.1614,0.1622,0.119274,0.131274,0.14309,0.1499,0.160753,0.177,0.1754,0.1761,0.1764,0.1635,0.1785,0.1667,0.180353,0.173153,0.177953,0.1743,0.1664,0.196253,0.1813,0.1822,0.1834,0.1692,0.1863,0.171153,0.1889,0.1765,0.195853,0.1798,0.1671,0.2036,0.186053,0.1881,0.1898,0.1697,0.1928,0.1725,0.1954,0.1796,0.2032,0.1844,0.116274,0.1447,0.1488,0.151144,0.1237,0.1291,0.1338,0.14025
7,0.102256,0.16024,0.1633,0.163628,0.1229,0.134156,0.14616,0.152892,0.1631,0.1795,0.1768,0.1776,0.1781,0.165532,0.1799,0.168732,0.181732,0.1748,0.1802,0.1758,0.1681,0.1979,0.1828,0.1839,0.1849,0.1709,0.1879,0.1728,0.1906,0.1779,0.1974,0.1809,0.1687,0.205,0.1882,0.189832,0.1915,0.1716,0.195032,0.1743,0.1978,0.181,0.2047,0.1858,0.118556,0.146,0.1501,0.1527,0.1262,0.1307,0.1356,0.1424
8,0.105676,0.162,0.1646,0.1653,0.126,0.136676,0.14893,0.1553,0.165311,0.1815,0.178311,0.1791,0.1795,0.1673,0.181411,0.1701,0.1831,0.1759,0.1817,0.1772,0.17,0.1993,0.1841,0.185511,0.186811,0.1724,0.1891,0.1742,0.192,0.1792,0.198911,0.1823,0.1705,0.2071,0.1898,0.191411,0.193,0.173411,0.197,0.1757,0.199811,0.182411,0.2068,0.1868,0.120338,0.14797,0.1511,0.1539,0.1280379999999999,0.1328,0.1376,0.14385
9,0.10882,0.1632,0.1664,0.16731,0.1289,0.13874,0.1515,0.1588,0.1668,0.1829899999999999,0.1798,0.1806,0.1811,0.1691899999999999,0.1827,0.17159,0.1845,0.1766,0.1834,0.1785,0.1713,0.2004,0.1853,0.1872,0.18839,0.1739,0.1912,0.17539,0.19369,0.1808,0.2001,0.1836,0.1721899999999999,0.2094,0.1909,0.193,0.1946,0.175,0.1987,0.17729,0.20159,0.18389,0.2086,0.1881,0.1222,0.1494,0.1525,0.155,0.12992,0.1348,0.13981,0.1455
10,0.111502,0.16473,0.1678,0.169501,0.1315,0.141002,0.1534,0.161139,0.1684,0.1844,0.181369,0.182,0.182669,0.1705,0.1841,0.173069,0.1857,0.178,0.184669,0.1802,0.172669,0.2018,0.186869,0.1885,0.1899,0.1753,0.193169,0.176769,0.1958,0.1822,0.2015,0.185,0.1736,0.2111,0.1921,0.1943,0.196,0.1764,0.2001,0.1786,0.202969,0.1851,0.2104,0.1892,0.1242,0.1505,0.1534,0.155912,0.131502,0.136802,0.1418,0.147
11,0.1143,0.16666,0.1698,0.171092,0.1345839999999999,0.1425,0.1549,0.1634,0.17,0.1855,0.1826,0.1834,0.184,0.1721,0.1857,0.1744,0.186648,0.1793,0.1858,0.181448,0.174,0.2032,0.1884,0.189548,0.1913,0.1769,0.1948,0.178,0.1977,0.183148,0.2026,0.1863,0.1748,0.213148,0.193448,0.1956,0.1972,0.178148,0.201248,0.1799,0.204448,0.1862,0.2126,0.190348,0.1258,0.1515,0.1546,0.1568,0.134,0.1385,0.1432,0.1481
12,0.1168,0.1684,0.1713,0.1732,0.136032,0.145,0.1567,0.165037,0.1716,0.1867,0.184,0.1844,0.1852,0.173627,0.1872,0.1757,0.1878,0.180827,0.1868,0.1825,0.1752,0.2042,0.1897,0.1908,0.1926,0.1784,0.196427,0.1793,0.1992,0.1844,0.203827,0.1875,0.176327,0.2146,0.1945,0.1964,0.198427,0.1797,0.202727,0.1814,0.205727,0.1873,0.214,0.1917,0.127566,0.15249,0.1561,0.1573,0.1356,0.1401,0.145,0.1494
13,0.119348,0.17002,0.173154,0.1749,0.138448,0.1469,0.1582,0.1663,0.1731,0.188,0.184906,0.185506,0.186206,0.175,0.188206,0.1769,0.1888,0.182,0.1881,0.1835,0.1764,0.2056,0.1907,0.1921,0.1938,0.1794,0.1979,0.1805,0.2004,0.185406,0.2051,0.188606,0.1776,0.216,0.195406,0.1973,0.1996,0.181106,0.2041,0.1827,0.2073,0.188506,0.2155,0.1927,0.129,0.1534,0.1572,0.1579,0.1369,0.1417,0.1465,0.1505
14,0.12183,0.17215,0.174365,0.1762,0.1404,0.14803,0.1602,0.1681,0.1742,0.1889,0.185885,0.1867,0.1876,0.176185,0.189285,0.1781,0.1898,0.1831,0.1888,0.1846,0.1779,0.2068,0.1916,0.193485,0.1954,0.1806,0.199,0.1817,0.2017,0.1863,0.20637,0.1896,0.1791,0.2172,0.1964,0.198285,0.2006,0.1825,0.2053,0.1838,0.208685,0.1895,0.2168,0.1938,0.1308,0.1546,0.158,0.15858,0.1386,0.1428,0.1479,0.1517
15,0.1239,0.1743,0.175676,0.1779,0.1423,0.149812,0.1621,0.17,0.1752,0.190264,0.1869,0.1877,0.1885639999999999,0.177364,0.1905639999999999,0.1793,0.1911,0.1841,0.190164,0.1856,0.179,0.2081,0.192764,0.1948,0.1968,0.1817,0.2003,0.182464,0.2032,0.1873,0.2079,0.1905639999999999,0.1804,0.218764,0.1973,0.1993,0.2014,0.1836,0.2065,0.185,0.21,0.1905,0.218,0.1953,0.132312,0.1559,0.1586,0.159,0.1403,0.1441,0.1497,0.1525
16,0.125994,0.1758,0.176987,0.1792,0.1452,0.151694,0.1636,0.1718,0.176443,0.1913,0.1879,0.188843,0.189943,0.1785,0.191443,0.1802,0.1923,0.184943,0.1913,0.1867,0.1802,0.209543,0.193843,0.1961,0.1981,0.1824,0.2015,0.1834,0.2045,0.1881,0.2093,0.191543,0.1816,0.2199,0.1983,0.200243,0.2023,0.184743,0.2076,0.186143,0.211,0.191443,0.2195,0.1963,0.1338939999999999,0.15701,0.1592,0.1597,0.141894,0.1453,0.151,0.15365
17,0.1286,0.1770399999999999,0.1785,0.1804,0.1474,0.1534,0.1649,0.1735,0.1776,0.1927,0.1889,0.1902,0.1909,0.1795,0.192722,0.1812,0.1934,0.1858,0.1926,0.1876,0.1812,0.211022,0.195022,0.1971,0.199022,0.1834,0.2026,0.1843,0.2054,0.1894,0.2109,0.1927,0.182722,0.2208,0.199322,0.2012,0.203322,0.186022,0.208622,0.1871,0.2124,0.192722,0.2204,0.197622,0.1352,0.158,0.1596,0.160456,0.1434,0.1465,0.1522,0.1546
18,0.1307,0.1783,0.1796,0.1814,0.1494579999999999,0.1547579999999999,0.1666,0.1749,0.178601,0.1943,0.1899,0.1911,0.1919,0.1806,0.193801,0.1823,0.1946,0.1868,0.194001,0.1885,0.1822,0.2122,0.1961,0.1982,0.2001,0.184301,0.203801,0.1851,0.2064,0.190701,0.2122,0.1939,0.184,0.2218,0.200201,0.202301,0.2043,0.187,0.2098,0.1883,0.213601,0.1939,0.221101,0.1987,0.1366,0.1588,0.1601,0.1612,0.1448,0.147558,0.1537,0.1557
19,0.1335,0.1795,0.1809,0.1825,0.1507,0.15634,0.1684,0.1764,0.1797,0.19548,0.1909,0.192,0.193,0.1819,0.1948,0.1835,0.1955,0.188,0.1956,0.1895,0.183,0.2132,0.1974,0.19918,0.2011,0.1854,0.205,0.1861,0.2074,0.1919799999999999,0.2134,0.1951,0.1854,0.2227,0.20148,0.2033,0.2054,0.1884,0.2107,0.1893,0.2147,0.19488,0.22208,0.1997,0.1383,0.1595,0.1606,0.1621,0.14594,0.14884,0.1547,0.1568
20,0.1361,0.1806,0.1821,0.1833109999999999,0.1524,0.1581219999999999,0.16997,0.1774,0.1807589999999999,0.1964,0.1921,0.193,0.193959,0.1829589999999999,0.1958,0.184359,0.1968,0.189459,0.196459,0.1906,0.1842,0.2142,0.1986,0.2003589999999999,0.2021589999999999,0.186359,0.205759,0.1871,0.2085,0.1932,0.2144,0.1967,0.1865,0.2237,0.202759,0.2043,0.2067,0.1894,0.2119589999999999,0.1904,0.215659,0.1962,0.223,0.2008,0.14,0.16,0.1615,0.1629,0.147722,0.1502,0.1555,0.1577
21,0.1383,0.1817,0.1832,0.1842,0.1545,0.1595,0.17184,0.1784,0.1819,0.1974,0.1929,0.1941,0.195,0.1839,0.1967,0.185438,0.1979,0.1907,0.1976,0.1919,0.185,0.2151,0.1997,0.2013,0.203,0.187338,0.2067,0.1884,0.2093,0.1946,0.215538,0.1979,0.1872,0.2251,0.2039,0.205538,0.2083,0.1906,0.2133,0.1916,0.2165,0.1973,0.224338,0.201838,0.1416,0.1606,0.1623,0.1634,0.149204,0.1513,0.1565,0.1587
22,0.140186,0.1829,0.1842,0.1848,0.156586,0.1614,0.1732,0.179927,0.182917,0.1983,0.194117,0.195,0.1962,0.185,0.197717,0.1864,0.1988,0.1918,0.1985,0.1932,0.1862,0.2162,0.201,0.2026,0.203817,0.1885,0.2075,0.1896,0.2103,0.1958,0.216617,0.199,0.1885,0.2262,0.2053,0.2071,0.2094,0.191817,0.2147,0.1927,0.2178,0.198417,0.2255,0.2029,0.1429,0.1613,0.162976,0.163816,0.1504,0.1522,0.1572,0.1597
23,0.1421,0.18382,0.1852639999999999,0.1856,0.1585,0.1629,0.1748,0.1813,0.1839,0.1995,0.195396,0.196,0.1971,0.1860959999999999,0.1985,0.1875959999999999,0.1998,0.1932,0.1997,0.194496,0.187,0.2171,0.2022,0.2034,0.2048,0.1899,0.2083,0.1908,0.2112,0.1969,0.2175,0.2001,0.1896,0.2272,0.2065,0.2083,0.2109,0.193296,0.2157,0.1939,0.2191,0.1997,0.2267,0.204,0.1442,0.1621,0.1635,0.1643,0.151668,0.1534,0.1581,0.1605
24,0.1444,0.1853,0.1859,0.1863,0.16055,0.1648,0.1767,0.182525,0.1852,0.201175,0.1965,0.1969,0.198,0.1872,0.1994,0.1893,0.2007,0.1944,0.201275,0.1958,0.1882,0.2179,0.203075,0.2043,0.205775,0.1909,0.2095,0.1922,0.2121,0.1981,0.218275,0.2012,0.190775,0.2281,0.2076,0.2099,0.212675,0.1943,0.2169,0.195,0.220575,0.2009,0.2277,0.2054,0.1456,0.1631,0.1642,0.165,0.1527,0.1547,0.1591,0.16135
25,0.1469,0.1863,0.1866,0.1868,0.1622,0.166732,0.1781,0.1837,0.1861,0.2023,0.1977,0.198,0.1988,0.1886,0.2006,0.190654,0.2015,0.1955,0.2025,0.196954,0.189554,0.219,0.2042,0.2054,0.2068,0.192154,0.2106,0.193354,0.212954,0.1994,0.2191,0.2023,0.1921,0.2291,0.2089,0.211254,0.2138,0.1953,0.2184,0.1961,0.222,0.2019,0.2286,0.2065,0.147,0.1639,0.1649,0.165592,0.1537,0.155732,0.1603,0.1626
26,0.149,0.1871,0.1876,0.1874,0.1638,0.1681,0.1798,0.185,0.1872,0.2036,0.198933,0.1994,0.199933,0.190233,0.2017,0.1917,0.202333,0.1967,0.2038,0.1982,0.190633,0.22,0.205133,0.206333,0.207933,0.1934,0.2116,0.1944,0.214,0.2006,0.22,0.2036,0.193533,0.2302,0.2102,0.2125,0.2151,0.1969,0.219633,0.1973,0.2232,0.203033,0.229633,0.207533,0.1486,0.1649,0.1656,0.1661,0.1548,0.1569,0.1611,0.16355
27,0.1509,0.1883,0.1885,0.1881,0.165296,0.1693,0.1812,0.1862,0.1886,0.204512,0.1999,0.200412,0.2009,0.191412,0.2026,0.1928,0.2035,0.1976,0.2049,0.199,0.1918,0.2208,0.2062,0.207412,0.209224,0.1949,0.213,0.1954,0.2151,0.2016,0.2208,0.2045,0.1949,0.231012,0.2116,0.2136,0.2164,0.1979,0.220812,0.1987,0.2242,0.2042,0.2306,0.2086,0.149796,0.166,0.1662,0.166876,0.1559,0.1579,0.1622,0.1643
28,0.153,0.1893,0.1895,0.1887,0.1667,0.171,0.18333,0.1875209999999999,0.1899,0.206,0.2011909999999999,0.2014,0.2018,0.1927,0.2035,0.1941,0.204591,0.1989,0.2064,0.2002,0.1932,0.2218,0.207391,0.208691,0.2104,0.196,0.2145,0.1968,0.2162,0.2027,0.2215,0.2054,0.196,0.2326,0.2126,0.2149,0.217682,0.1991,0.2222,0.2002,0.225791,0.2054909999999999,0.231991,0.2096,0.1511,0.1666,0.1666479999999999,0.1676679999999999,0.1573,0.1591,0.1631,0.1654
29,0.1551,0.1905,0.1903,0.1894,0.1685,0.17326,0.1851,0.1887,0.1915,0.2073,0.2022,0.2025,0.2026,0.19417,0.2042,0.1953,0.20557,0.1999,0.2077,0.2014,0.19467,0.2226,0.2084,0.20987,0.21137,0.1972,0.2155,0.1981,0.21737,0.2038,0.2222,0.2064,0.19737,0.23397,0.2137,0.2159,0.2187,0.2003,0.2233,0.2011,0.2269,0.2064,0.23347,0.2109,0.1525,0.1674,0.1675,0.1683,0.1584,0.16,0.16423,0.1661
30,0.1578,0.1915,0.1913,0.190521,0.170142,0.1753,0.1873,0.1898,0.1927,0.2089,0.2034,0.203649,0.2037,0.1953,0.2051,0.1968,0.2066,0.201,0.2095,0.2026,0.1961,0.2233,0.2095,0.2108,0.2124,0.1982,0.216549,0.1995,0.2182,0.2047,0.223,0.2075,0.1986,0.2354,0.214949,0.2173,0.2196,0.201449,0.2241,0.2023,0.2281,0.2074,0.2349,0.212,0.1537,0.168,0.168572,0.1691,0.1593,0.1609,0.1653,0.1671
31,0.159524,0.1922,0.1926,0.1921,0.1717,0.176924,0.1888,0.190968,0.1942,0.2107,0.2043,0.204528,0.2045,0.1968,0.2063,0.198228,0.2076,0.2022,0.2113,0.2035,0.1973,0.224028,0.210428,0.2118,0.2134,0.1996,0.2176,0.2009,0.219428,0.2058,0.223628,0.2086,0.2001,0.2368,0.2159,0.2182,0.220528,0.2027,0.225328,0.203628,0.2296,0.2084,0.236228,0.2131,0.1551,0.1688,0.1696,0.1697,0.1603,0.161824,0.1665,0.1681
32,0.161806,0.1929,0.193463,0.1932,0.1733,0.1786,0.1901,0.1921,0.1955,0.2122,0.2056,0.2057,0.2058,0.1982,0.2073,0.199507,0.2088,0.203407,0.212307,0.2044,0.198507,0.2249,0.2116,0.2128,0.2144,0.2008,0.2185,0.202407,0.2206,0.2068,0.224507,0.2095,0.2011,0.238407,0.2169,0.2191,0.2215,0.204,0.2265,0.205,0.2308,0.2093,0.237807,0.2142,0.156606,0.1695,0.1706,0.1705,0.161506,0.163,0.167443,0.1689
33,0.164276,0.19392,0.1944,0.1945,0.1754,0.180088,0.1911,0.193366,0.1973,0.213686,0.2066,0.2066,0.2069,0.1995,0.2085,0.201,0.21,0.2044,0.2136,0.2054,0.1998,0.2256,0.212586,0.2136,0.215386,0.2022,0.2194,0.204,0.2219,0.2076,0.2252,0.210686,0.202486,0.2399,0.218,0.2202,0.2226,0.205186,0.2279,0.2061,0.232,0.2102,0.239486,0.2154,0.1581,0.1701,0.1714,0.1711,0.162688,0.1639,0.1684,0.1697
34,0.1667699999999999,0.1946,0.1954,0.196485,0.1773,0.18197,0.1923,0.1943,0.1983,0.215,0.2077,0.2077,0.208,0.2007,0.209665,0.2026,0.2112,0.2052,0.2146,0.2066,0.201,0.2266,0.2135,0.2148,0.2164,0.2035,0.2204,0.2052,0.2229,0.2086,0.226,0.2116,0.2037,0.2414649999999999,0.219,0.2211,0.2235,0.2063,0.2292,0.207165,0.2334,0.211165,0.2411,0.2165,0.1591,0.1709,0.1727,0.1718,0.1638,0.16507,0.1693,0.1708
35,0.1687,0.1959,0.1966,0.198,0.1786,0.1843,0.1935,0.1956,0.1999,0.2166,0.2087,0.2088,0.209144,0.2021,0.2107,0.2036,0.2123,0.2062,0.2164,0.207744,0.2024,0.2276,0.2146,0.2159,0.2174,0.2051,0.2212,0.206244,0.2236,0.2098,0.2269,0.2128,0.205,0.243,0.2201,0.2221,0.2245,0.2077,0.2306,0.2082,0.234644,0.2123,0.2428,0.2176,0.1604,0.1717,0.1737319999999999,0.1725,0.1647,0.1663,0.170356,0.1716
36,0.1705,0.1972,0.1987,0.200067,0.180734,0.186434,0.1944,0.1966,0.2011,0.2178,0.2096,0.2098,0.2101,0.2035,0.212,0.2048,0.2132,0.2071,0.2177,0.2086,0.2042,0.228523,0.215623,0.216923,0.2184,0.2062,0.2221,0.2071,0.2242,0.2107,0.2278,0.2139,0.2063,0.2446,0.2216,0.223123,0.225623,0.2091,0.2319,0.2093,0.235923,0.213423,0.2442,0.2184,0.162,0.173,0.1747,0.174,0.1658,0.1677,0.1713,0.1725
37,0.1726,0.1982,0.2006,0.2014,0.1826,0.1881,0.1955,0.1979,0.2026,0.2189,0.2106,0.2109,0.2113,0.2049,0.2131,0.2059,0.2142,0.208,0.2189,0.2095,0.2055,0.2298,0.216502,0.218,0.2194,0.207402,0.2229,0.2083,0.225402,0.2117,0.228802,0.215002,0.2076,0.2462,0.222402,0.2243,0.226802,0.2103,0.233,0.2106,0.2375,0.2147,0.2455,0.2196,0.1633,0.17444,0.1759,0.1753,0.1668,0.1688,0.172,0.1734
38,0.175,0.1999,0.2023,0.2024,0.1847,0.1898,0.1968,0.1991,0.203981,0.2199,0.2115,0.2119,0.212181,0.2064,0.214081,0.2071,0.215781,0.208981,0.22,0.2103809999999999,0.2066,0.2308,0.2177,0.219,0.2202,0.2086,0.2236,0.2096,0.2264,0.2126,0.229962,0.2162,0.2092,0.2475,0.2235,0.2254,0.228,0.211781,0.234181,0.2119,0.2387,0.2158,0.2471,0.2209,0.1649,0.1755,0.1767,0.177,0.1683,0.170198,0.1729689999999999,0.1742
39,0.1771,0.2024,0.2044,0.20444,0.18598,0.19158,0.198,0.2003,0.20526,0.2210599999999999,0.21236,0.2128,0.2133,0.2082,0.2156,0.2081599999999999,0.2173,0.2101,0.221,0.2114,0.208,0.232,0.2187,0.2199,0.2212599999999999,0.21,0.2243,0.211,0.2274,0.2136,0.231,0.2172,0.2105,0.2487,0.2245,0.2265,0.2289,0.21316,0.2352,0.2131,0.2399,0.21716,0.24846,0.2222,0.16638,0.177,0.1773,0.1784,0.1697,0.1714,0.1737,0.1751
40,0.1798,0.2046,0.2061509999999999,0.206531,0.187962,0.1934,0.1995,0.2015,0.207,0.2225,0.2133389999999999,0.2136,0.2143,0.2098,0.2169,0.2096,0.2188,0.2111,0.2224,0.213,0.2094,0.233,0.2198389999999999,0.2208389999999999,0.2221,0.2117,0.2252,0.2122389999999999,0.2284,0.2148,0.2324,0.218239,0.211939,0.250239,0.2255,0.2274,0.2298,0.2145,0.236339,0.2141,0.240939,0.2185,0.2497,0.2231,0.1682,0.1783,0.1781,0.1798,0.170962,0.1729,0.1744,0.1759
41,0.1819,0.2062,0.2074,0.2088,0.1898,0.1954,0.2013,0.2028,0.2085179999999999,0.2237,0.2142,0.2146,0.2155,0.2110179999999999,0.2184,0.211,0.22,0.2122,0.2236179999999999,0.2141,0.2112,0.2344,0.2208,0.2217,0.2232,0.213,0.226218,0.2135,0.2294,0.2158,0.233618,0.2192,0.2132,0.2515,0.2268,0.2286,0.231,0.216,0.2374,0.2153,0.2421,0.2197,0.2509,0.2242,0.1697,0.1792,0.1793,0.180664,0.1721,0.174144,0.1754819999999999,0.1772
42,0.1840259999999999,0.2077,0.2088,0.2104,0.1916259999999999,0.1977,0.2029,0.2041,0.2098,0.2251,0.2153,0.2157,0.2167969999999999,0.2127,0.2194,0.2122969999999999,0.2212,0.2132,0.2248,0.215,0.2125,0.2359969999999999,0.2219,0.2226969999999999,0.2240969999999999,0.2146,0.2274,0.2147,0.2305,0.217,0.2348969999999999,0.2202969999999999,0.2148969999999999,0.2528,0.2277969999999999,0.2297,0.2321,0.2175,0.2383,0.2169,0.2428,0.2209,0.2521,0.2252,0.1715519999999999,0.1799,0.1803,0.1814,0.1731,0.1754,0.1764,0.1786
43,0.186408,0.2088,0.2103,0.2121,0.1936,0.1994,0.2042,0.2055,0.2114,0.2264,0.2163,0.2171,0.218,0.2139,0.2205,0.2136,0.2227,0.2144,0.2259,0.2159,0.214176,0.2374,0.2227,0.2237,0.2251,0.216276,0.2286,0.2158,0.2316,0.2183,0.2366,0.2214,0.2166,0.2539,0.228876,0.2307,0.233176,0.2191,0.2392,0.2181,0.243876,0.222276,0.2533,0.226476,0.172808,0.18102,0.181228,0.1822,0.1743,0.1766,0.1773,0.1798
44,0.18839,0.2108499999999999,0.211795,0.213,0.1953,0.201,0.20565,0.2067,0.2133,0.2279,0.2173,0.218,0.219,0.2154,0.2217,0.215,0.2242,0.2158,0.2275,0.2171,0.2154,0.239155,0.2238,0.2247,0.226,0.2176,0.2296,0.217,0.233,0.2195,0.2379,0.2221,0.218,0.2555,0.2298,0.231955,0.2342,0.2207,0.240155,0.2196,0.2447,0.2234,0.2546,0.227855,0.17429,0.1823,0.1824,0.1829,0.17579,0.178,0.1784,0.1808
45,0.190372,0.2123,0.2133,0.2149,0.1975,0.2028,0.2069,0.2081,0.215034,0.2293,0.2185,0.218934,0.2203,0.2171,0.2231,0.216,0.2255,0.2168,0.2286,0.2179,0.217234,0.240634,0.2247,0.2256,0.2272,0.2192,0.2308,0.2184,0.2342,0.220634,0.239734,0.2232,0.219734,0.257,0.2308,0.2331,0.2351,0.2224,0.2412,0.2211,0.245734,0.2248,0.255834,0.229,0.1759,0.1834,0.1833,0.184,0.1771,0.1795,0.179366,0.182
46,0.192154,0.2136,0.2148,0.2166,0.1993,0.2048,0.2084,0.209,0.2169,0.2309129999999999,0.2197,0.2201129999999999,0.2214129999999999,0.2185,0.2245,0.2172,0.227,0.2181129999999999,0.2297,0.2192129999999999,0.2189129999999999,0.242,0.2255,0.2268,0.2285129999999999,0.2209129999999999,0.2318,0.2197,0.2353,0.2218,0.2411,0.2243,0.2217,0.2583129999999999,0.2318129999999999,0.2342129999999999,0.2362,0.2236,0.2421,0.2222,0.2467,0.2262,0.2571,0.2302,0.1777,0.1845,0.1842,0.1855,0.1786,0.1807,0.1807,0.1833
47,0.1942,0.2152,0.2167,0.2183679999999999,0.2013359999999999,0.2068719999999999,0.2103,0.211,0.2182,0.2331,0.2209,0.2213,0.2223,0.22,0.2258,0.2184,0.229,0.2194,0.230992,0.2208,0.2208,0.2429,0.2265,0.227892,0.229592,0.2223,0.233092,0.2209,0.236592,0.2229,0.2424,0.225292,0.2234,0.2597,0.2329,0.2356,0.237692,0.2253,0.2432,0.2237,0.2479,0.2272,0.2583,0.2312,0.1791,0.1856,0.185,0.1868159999999999,0.1805,0.1822,0.1822,0.1845
48,0.1962,0.21677,0.2188,0.2195,0.2035179999999999,0.209618,0.2125,0.2124,0.22,0.234771,0.2221,0.2224,0.223471,0.2216,0.2276,0.2198,0.2306,0.2204,0.232971,0.2217,0.222542,0.244142,0.2276,0.229,0.2304,0.2242,0.2344,0.2226,0.2378,0.2241,0.2435,0.2266,0.225271,0.261071,0.2345,0.2369,0.239,0.2268,0.2442,0.2251,0.249071,0.2285,0.259871,0.2324,0.1803,0.1865699999999999,0.1861,0.1883,0.182118,0.1835,0.183,0.1859
49,0.1984,0.2182,0.22095,0.22105,0.2063,0.2121,0.2141,0.2138,0.2218,0.236,0.2231,0.2237,0.2248,0.2231,0.2288,0.2213,0.2318,0.2217,0.2345499999999999,0.22275,0.22455,0.24525,0.2289,0.23,0.2315,0.2257,0.2356,0.2241,0.239,0.2252,0.24485,0.228,0.2266,0.2621,0.2357,0.2381,0.2403,0.2282,0.2456,0.2265,0.2501,0.22965,0.26095,0.23375,0.1819,0.188,0.1874,0.1897,0.1838,0.1847,0.1842,0.1872
50,0.201,0.2198,0.222461,0.2229,0.2091,0.214382,0.2158,0.2161,0.223829,0.2373,0.2244,0.2249,0.2263,0.225,0.230229,0.2227,0.2338,0.223329,0.236,0.223829,0.226329,0.247029,0.23,0.231029,0.2328,0.227329,0.237,0.225529,0.2403,0.2266,0.2465,0.2292,0.2284,0.263,0.2369,0.238929,0.2415,0.2299,0.2469,0.227829,0.2513,0.2308,0.2621,0.235,0.183482,0.1893,0.1895,0.1908,0.1852,0.186,0.1853,0.18875
51,0.203,0.2216,0.223672,0.2249,0.2118,0.2164,0.2173,0.219448,0.2256,0.2391,0.2256079999999999,0.2264,0.2278079999999999,0.2265,0.2315,0.2242,0.2351,0.2247,0.2376079999999999,0.2251079999999999,0.2281,0.248408,0.2312,0.2324,0.2339,0.2288,0.2383,0.2266,0.2417,0.228,0.2483,0.2305,0.2311,0.2638,0.2380079999999999,0.2405079999999999,0.2427,0.2315,0.2481,0.2296,0.2526,0.2321,0.2632,0.236,0.1849,0.1912599999999999,0.1908,0.1923,0.1865,0.1872,0.1871,0.1904
52,0.205346,0.2233,0.2253829999999999,0.2264,0.213746,0.2186,0.21971,0.2228,0.227387,0.2406,0.2267,0.2278,0.229,0.2282,0.2326,0.2255,0.2361,0.226287,0.239387,0.2264,0.229887,0.249887,0.2324,0.2337,0.235087,0.230487,0.239487,0.227987,0.242787,0.229487,0.2498,0.2317,0.232987,0.265,0.2395,0.242,0.2441,0.2333,0.2492,0.2309,0.2534,0.2337,0.264287,0.237387,0.186446,0.1926,0.192236,0.1932,0.1882,0.1885,0.1889,0.1918
53,0.2076,0.2252,0.2268939999999999,0.2289,0.2169,0.220928,0.2217,0.2255,0.229,0.2421,0.2281,0.229166,0.2304,0.2299,0.234,0.227,0.2374,0.2274,0.2409,0.228066,0.2315,0.2519,0.2335,0.235,0.2364,0.232166,0.2407,0.229366,0.2444,0.2306,0.2516,0.2329,0.2352,0.2661,0.2407,0.2432,0.2456,0.2349,0.2503,0.2325,0.2548,0.2349,0.2654,0.2386,0.188,0.1934,0.1935,0.1946,0.1895,0.1896,0.1904,0.1936
54,0.2097,0.227,0.2287,0.23231,0.2192,0.22331,0.2235,0.228595,0.2306,0.2432,0.229445,0.2308,0.2317,0.2316,0.2355,0.228445,0.2386,0.2288,0.2422,0.2293,0.233445,0.253045,0.235,0.236545,0.238,0.2338,0.242,0.231,0.2459,0.232,0.253145,0.234,0.2373,0.2673,0.2419,0.244645,0.247145,0.2367,0.2515,0.234145,0.2557,0.2365,0.2664,0.2399,0.1893,0.19475,0.195,0.19636,0.1912,0.191,0.1922,0.19555
55,0.212092,0.22868,0.230416,0.2355,0.2213,0.225792,0.2255,0.231,0.2325,0.2445,0.231,0.2323,0.2334,0.2333,0.2368,0.2304,0.2398,0.230324,0.2436,0.2306,0.2356,0.255224,0.2364,0.238124,0.2396,0.2353,0.2436,0.232448,0.2469,0.2338,0.2553,0.2352,0.2392,0.2684,0.2432,0.2459,0.2483,0.2387,0.2529,0.235824,0.256824,0.238,0.2674,0.2411,0.191392,0.1958,0.1968,0.1978,0.1925,0.1921,0.1943,0.197
56,0.214774,0.231,0.2326,0.2391,0.224174,0.2284,0.2271,0.232993,0.2342,0.2458,0.232703,0.2341,0.234903,0.2354,0.2385,0.2323,0.2409,0.2319,0.2451,0.232103,0.238,0.256903,0.238003,0.239503,0.2411,0.2374,0.2454,0.2345,0.249,0.2351,0.256603,0.2363,0.241606,0.2696,0.2445,0.2472,0.2498,0.240703,0.2545,0.2381,0.2581,0.2395,0.2684,0.2424,0.192974,0.1972,0.199584,0.199444,0.1942,0.193374,0.196347,0.1988
57,0.2168,0.2341,0.2346,0.2413,0.226756,0.2318,0.22976,0.2353,0.2364,0.2472,0.2342,0.2355,0.2363,0.2374,0.2398819999999999,0.2335,0.2424,0.2334,0.2466819999999999,0.2334,0.2399819999999999,0.2586,0.2395,0.2408,0.2426,0.2394819999999999,0.2466,0.236,0.2504,0.2367,0.2583,0.2379,0.244,0.2705,0.2462,0.2487,0.251282,0.2426819999999999,0.2558,0.2397,0.259582,0.2411,0.269682,0.2441,0.194556,0.1987,0.2012,0.2012,0.1961,0.1948119999999999,0.199,0.2004
58,0.2200379999999999,0.2363,0.2383,0.2433,0.2292139999999999,0.2344,0.2323299999999999,0.2381909999999999,0.2387,0.2484609999999999,0.2358,0.2369,0.2377,0.2392,0.2414609999999999,0.2349,0.2439609999999999,0.2348609999999999,0.2478609999999999,0.2353,0.242,0.2603,0.2412,0.2421609999999999,0.2441,0.2414,0.2482,0.2383,0.2518,0.2381,0.2596,0.2394,0.2461,0.2716,0.2477609999999999,0.2501,0.2527,0.2446,0.257,0.2417609999999999,0.2609,0.2425609999999999,0.2709,0.246,0.1959,0.20007,0.2026,0.2028,0.1978,0.1971379999999999,0.2016889999999999,0.2026
59,0.22302,0.2383,0.2405,0.245,0.23202,0.2367,0.2346,0.2406,0.24092,0.24984,0.23734,0.23824,0.2391,0.2414,0.2427,0.237,0.2453,0.23654,0.2495,0.2365,0.2442,0.2613,0.2428,0.2438,0.2455,0.2434,0.24974,0.2398,0.2535,0.2397,0.2607,0.2411,0.248,0.2726,0.2497,0.25124,0.2542,0.2464,0.25854,0.2438,0.2623,0.2442,0.2721,0.24794,0.19762,0.2012,0.20412,0.2037,0.1996,0.1991,0.2036599999999999,0.2043
60,0.226002,0.2411,0.2432,0.2466,0.2351,0.2389,0.2368,0.2421,0.2436,0.2514,0.239,0.239619,0.2407,0.2436,0.2441,0.2391,0.2469,0.2384,0.251019,0.2384,0.2468,0.262619,0.244,0.2454,0.247,0.2454,0.2513,0.242,0.2551,0.241519,0.2619,0.2429,0.2504,0.273519,0.2516,0.2531,0.2555,0.248119,0.259919,0.2456,0.2636,0.2462,0.2734,0.25,0.199002,0.2035,0.2054319999999999,0.2046,0.2015,0.2009,0.205431,0.2057
61,0.2292,0.2434599999999999,0.246282,0.248642,0.237384,0.2408,0.2395,0.2439,0.2461,0.2526,0.2405,0.2412,0.241998,0.2454,0.245298,0.241598,0.2483,0.240398,0.2522,0.2398,0.2488,0.263798,0.2458,0.2471,0.2485,0.2474,0.253098,0.2441,0.2567979999999999,0.243398,0.2628,0.2449,0.2523,0.2748,0.253298,0.2545,0.257,0.2505,0.2613,0.2477,0.265398,0.248,0.274598,0.2522,0.2008,0.20656,0.2064,0.2058,0.2031,0.2026,0.2067,0.2072
62,0.2321659999999999,0.2454,0.249293,0.2503,0.2404,0.2427,0.2422099999999999,0.2457869999999999,0.2489,0.254,0.2421,0.2427,0.243677,0.2474,0.2468,0.2438,0.249777,0.242,0.2538,0.2416,0.2514,0.265,0.247477,0.2486,0.2501,0.249677,0.2544,0.2465,0.258177,0.2454,0.263877,0.2471539999999999,0.2542,0.2762,0.2551,0.2566,0.2587,0.252777,0.263077,0.250177,0.2669,0.2498,0.2761,0.2544,0.202866,0.2086,0.2079,0.2069,0.2050319999999999,0.2047659999999999,0.2087,0.2086
63,0.235248,0.24742,0.2524,0.252024,0.2442,0.2452,0.24548,0.2473,0.2517,0.2558,0.243956,0.2445,0.2456,0.2495,0.2484,0.2458,0.2513,0.2437,0.2554,0.243856,0.253656,0.266,0.2496,0.2505,0.2517,0.252156,0.2558,0.2487,0.2601,0.2474,0.265,0.2496,0.2561,0.2781,0.257356,0.258956,0.2605,0.2548,0.265,0.251956,0.269,0.2515,0.2776,0.2561,0.2048,0.2111,0.209468,0.208288,0.206948,0.2071,0.2104,0.2097
64,0.2383,0.24995,0.2548,0.2541,0.24793,0.2472,0.2491499999999999,0.2489,0.2541,0.2576,0.245935,0.2461,0.2473,0.2519,0.2502,0.248135,0.253,0.245635,0.256935,0.2457349999999999,0.2559,0.2674,0.251735,0.2524,0.253835,0.2542,0.25777,0.250735,0.2617,0.2494,0.2661,0.2516,0.2589,0.28,0.2598,0.2615,0.2626,0.2576,0.267235,0.253835,0.2709,0.254235,0.279135,0.258135,0.20703,0.2128,0.2115,0.2106,0.20873,0.20893,0.212515,0.211
65,0.242012,0.2523,0.2579,0.256006,0.2511,0.250312,0.25192,0.250734,0.257,0.2591,0.248,0.248014,0.249,0.2543,0.2525,0.250814,0.254714,0.248114,0.2587,0.248114,0.2582,0.2685,0.2542,0.2547,0.255814,0.256414,0.2599,0.2531,0.2632,0.2517,0.2678,0.253414,0.2614,0.281814,0.262014,0.263714,0.2649,0.2601,0.2689,0.2561,0.2728,0.2567,0.2811,0.2601,0.2088,0.2151,0.2135,0.2132,0.2106,0.2109,0.2152,0.2125
66,0.245694,0.25451,0.2595,0.258597,0.2539,0.253494,0.2552,0.252483,0.259493,0.2609,0.2505,0.250193,0.2512,0.2567,0.2546,0.2531,0.256293,0.2504,0.260493,0.2503,0.261,0.2696,0.2565,0.2569,0.258,0.258893,0.262,0.2554,0.2648,0.254,0.269,0.2557,0.2641,0.2836,0.264293,0.265993,0.267893,0.2622,0.271393,0.2586,0.2745,0.2585,0.2827,0.262193,0.211194,0.21661,0.216104,0.2168,0.2122,0.2127939999999999,0.218457,0.21465
67,0.2485,0.2575,0.2609,0.2602,0.256476,0.257176,0.25906,0.2552,0.261972,0.262,0.252872,0.2529,0.2528,0.259,0.256472,0.2553,0.258172,0.2531,0.261972,0.252472,0.2635,0.2713,0.2589,0.2593,0.260544,0.2614,0.2649,0.256872,0.266772,0.256672,0.2706,0.257672,0.266672,0.2854,0.2667,0.2687,0.271,0.264472,0.273872,0.261072,0.2763,0.2618,0.2843,0.264472,0.2131,0.2179,0.2184,0.218956,0.2141,0.215,0.2205,0.2168
68,0.2520579999999999,0.2607,0.262659,0.2621,0.2599579999999999,0.2594,0.2618,0.2573,0.264951,0.2635,0.2553,0.2553,0.255551,0.2617,0.2589,0.2571509999999999,0.2606509999999999,0.255751,0.2632,0.255,0.2656,0.273051,0.2612509999999999,0.2621,0.2632,0.2639,0.2671509999999999,0.259051,0.2686,0.259351,0.2722,0.2601019999999999,0.2697509999999999,0.287,0.2692509999999999,0.2713,0.2732509999999999,0.2672,0.276551,0.263851,0.2783509999999999,0.2651,0.2863019999999999,0.266851,0.2156,0.2201,0.2208,0.2209,0.2163,0.2179,0.2223,0.2187
69,0.2556,0.2645999999999999,0.26497,0.2634,0.26304,0.262,0.2644999999999999,0.26003,0.2682299999999999,0.2652,0.2582,0.2581299999999999,0.2581,0.2648,0.2613299999999999,0.25953,0.2631,0.2584,0.26463,0.2572899999999999,0.2691,0.27463,0.264,0.2652,0.2668,0.2667,0.2692,0.2617299999999999,0.2706,0.26203,0.2741,0.2626,0.2725,0.2885,0.272,0.2739,0.2764,0.2695599999999999,0.2783,0.2661,0.28063,0.2673,0.2878,0.2686,0.2180399999999999,0.2218,0.2232,0.2230399999999999,0.2183,0.2206,0.224,0.2215
70,0.2601219999999999,0.2693,0.267181,0.2656,0.2665219999999999,0.2641439999999999,0.2671699999999999,0.2622,0.270809,0.2671,0.260909,0.2606,0.2606,0.2677,0.263509,0.261809,0.2648,0.261,0.266309,0.2609,0.2726,0.2766,0.267,0.2689,0.2701,0.2692,0.272,0.264509,0.2725,0.264609,0.276109,0.265009,0.2766,0.2901,0.274809,0.277809,0.2788,0.2724,0.2808,0.268209,0.282609,0.269909,0.2896,0.271409,0.2203,0.2241,0.2254,0.2244319999999999,0.2203219999999999,0.2234219999999999,0.2261,0.2248
71,0.264804,0.2724599999999999,0.269692,0.2691519999999999,0.270004,0.267404,0.2699399999999999,0.2663,0.2746,0.2687,0.2638,0.2634,0.263988,0.270488,0.2658,0.2647,0.2674,0.264,0.2681,0.2634,0.275988,0.278488,0.2704,0.2723879999999999,0.2732,0.2723879999999999,0.2746,0.266888,0.2751,0.267488,0.2781,0.2679,0.279876,0.2919879999999999,0.277588,0.280288,0.2818,0.2755,0.2832,0.2707,0.2852,0.273488,0.291688,0.274788,0.2226,0.2277,0.2273,0.2264,0.2232,0.2263,0.227812,0.227
72,0.268986,0.2743,0.2724,0.272043,0.273186,0.270586,0.27401,0.2700769999999999,0.277767,0.2707,0.2669,0.2672,0.267,0.273467,0.2688,0.268,0.269667,0.2678,0.2697,0.267267,0.2801,0.280367,0.273767,0.275167,0.275467,0.2754,0.277,0.2701,0.277167,0.271534,0.2799,0.2721,0.283067,0.2937,0.280934,0.282367,0.2846,0.2784,0.2861,0.2737,0.287867,0.2755,0.2937,0.2782,0.2248,0.2308,0.2293,0.2299,0.2258,0.2297,0.229783,0.2296
73,0.273536,0.2763,0.2745,0.275134,0.2757,0.274,0.27698,0.2748,0.2816,0.2727,0.270046,0.2699,0.269838,0.2769,0.2714,0.2706,0.271346,0.2713,0.2716,0.2705,0.283746,0.2821,0.2769,0.2784,0.278546,0.278292,0.2792,0.2732,0.2794,0.2752,0.2818,0.275646,0.286246,0.295146,0.284,0.285646,0.2874,0.2813,0.288646,0.276446,0.290346,0.2787,0.2956,0.282,0.2287,0.2335,0.2326,0.2326,0.2282,0.2325,0.231954,0.232
74,0.27825,0.2787,0.276325,0.2768,0.27925,0.27755,0.2795,0.2781,0.28485,0.274625,0.2736,0.2736,0.273425,0.280725,0.2739,0.274525,0.274125,0.274325,0.273525,0.2731,0.2866,0.2842,0.280425,0.2808,0.281625,0.281625,0.2816,0.2767,0.2824,0.278025,0.2841,0.2795,0.2901,0.2975,0.28775,0.289125,0.290525,0.2845,0.2916,0.279525,0.2929,0.2819,0.297725,0.285,0.23265,0.2364,0.2359,0.2359,0.23155,0.2348,0.233925,0.2344
75,0.282832,0.28058,0.279336,0.2779,0.282232,0.2804,0.2825,0.2814239999999999,0.288804,0.276504,0.276808,0.276904,0.2767,0.284208,0.2767,0.278208,0.276604,0.277204,0.276004,0.2759,0.290104,0.2864,0.2838,0.2844,0.284804,0.2854,0.2852,0.280104,0.285304,0.281404,0.286204,0.283,0.2931,0.2998,0.290604,0.292104,0.293704,0.2876,0.2943,0.2828,0.2955,0.2853,0.299904,0.2891,0.2362639999999999,0.2383,0.2385,0.238892,0.2344319999999999,0.2368,0.236,0.2374
76,0.2873420000000001,0.2833,0.282947,0.279607,0.287028,0.285114,0.2854,0.2838,0.2936,0.279283,0.279783,0.2802,0.2802,0.2869,0.279683,0.281983,0.2794,0.280483,0.278983,0.279683,0.294183,0.2884,0.2869,0.287783,0.288083,0.2882,0.2888,0.283983,0.288683,0.2844489999999999,0.2885,0.2858,0.297583,0.301883,0.2937659999999999,0.295383,0.296283,0.2913,0.2976,0.2861,0.2978,0.288183,0.3018,0.2918,0.2393,0.24091,0.2408,0.2419,0.2383,0.2397,0.238567,0.2405
77,0.292292,0.28574,0.285258,0.282098,0.291896,0.289996,0.28896,0.289244,0.2981,0.2817,0.2834,0.282962,0.2832,0.2907,0.283,0.2853,0.2826,0.283662,0.2818,0.283162,0.2990239999999999,0.290862,0.2902,0.2904,0.2911,0.291,0.2926,0.287724,0.2918,0.287562,0.2914,0.2892,0.3017,0.3039,0.297062,0.297962,0.299262,0.2950239999999999,0.300762,0.289662,0.3007,0.2914,0.3037,0.295062,0.242396,0.24324,0.246436,0.244576,0.241596,0.242696,0.2405,0.2423
78,0.2977,0.2879,0.286969,0.285289,0.2964780000000001,0.2935,0.29313,0.293342,0.3020409999999999,0.2833409999999999,0.2858,0.2857,0.286,0.294141,0.2856,0.2897409999999999,0.285641,0.287041,0.2837,0.2862,0.3029049999999999,0.2931,0.2935,0.294,0.2952,0.2951,0.2949409999999999,0.290923,0.2944819999999999,0.2904,0.2934,0.292641,0.306341,0.3063,0.3005819999999999,0.3009229999999999,0.3023409999999999,0.2987,0.3039409999999999,0.2942,0.3035,0.295,0.3059409999999999,0.298782,0.2459,0.2459,0.2508,0.250136,0.245,0.2462,0.243,0.2454
79,0.3034400000000001,0.2905,0.2898,0.28758,0.30076,0.2977,0.297,0.2972,0.3074199999999999,0.2855,0.29072,0.2891,0.28874,0.29872,0.2888199999999999,0.29362,0.28872,0.2909199999999999,0.2860199999999999,0.2901,0.30784,0.29572,0.29744,0.29782,0.29832,0.29924,0.29772,0.2956199999999999,0.2976,0.29472,0.2962,0.2963,0.3109,0.30832,0.3038,0.30432,0.3058,0.3029599999999999,0.3065199999999999,0.29932,0.3061199999999999,0.29922,0.3077,0.30322,0.24916,0.2484,0.2529,0.2551,0.2491,0.24956,0.24668,0.2483
80,0.308584,0.29309,0.293191,0.291071,0.305242,0.303984,0.3031100000000002,0.2997,0.3126,0.287999,0.2942980000000001,0.293499,0.293,0.3039990000000001,0.2924970000000002,0.298,0.2920990000000001,0.296099,0.288499,0.2953990000000001,0.3142990000000001,0.2985,0.3012,0.3011,0.3008990000000001,0.3044990000000001,0.300499,0.3006,0.300499,0.2992970000000002,0.2993990000000001,0.3007980000000002,0.3168,0.3104980000000001,0.3073,0.307599,0.3086,0.3077990000000001,0.3097990000000001,0.3048990000000001,0.3088990000000001,0.3049990000000001,0.3098990000000001,0.3074,0.2537,0.2528,0.2551,0.2575,0.252542,0.2525,0.2517,0.25135
81,0.314924,0.2969599999999999,0.2953,0.3009239999999999,0.3097,0.3116239999999999,0.30794,0.302218,0.3183,0.2909779999999999,0.2982,0.297878,0.2969,0.3080339999999999,0.296378,0.303178,0.294878,0.3014779999999999,0.2911,0.300278,0.3196779999999999,0.3015,0.3049,0.304678,0.3045779999999999,0.3096779999999999,0.303678,0.305178,0.303778,0.3051899999999999,0.3022,0.305878,0.3235559999999999,0.313,0.3117339999999999,0.311978,0.3129,0.3130339999999999,0.3125,0.3105779999999999,0.3122,0.3094,0.3126559999999999,0.3120779999999999,0.2578,0.257,0.2578,0.2610439999999999,0.2557,0.2562,0.2555,0.2548
82,0.3229179999999998,0.3029,0.303426,0.3121,0.3164239999999998,0.318306,0.3137099999999999,0.306067,0.3240139999999999,0.2936,0.3032,0.302257,0.301757,0.313357,0.3000569999999999,0.3092569999999999,0.298,0.3075139999999999,0.2937,0.3050569999999999,0.3263139999999999,0.3041569999999999,0.3102569999999999,0.3091569999999999,0.3084,0.3146,0.3079,0.3110849999999999,0.306957,0.310957,0.3043,0.3116569999999999,0.329057,0.3157139999999999,0.317057,0.3163,0.315957,0.318557,0.3153,0.3154,0.3149,0.314857,0.3152,0.317057,0.2606,0.2597,0.2602959999999999,0.264036,0.2589059999999999,0.2608,0.2592859999999998,0.2575
83,0.330188,0.3117,0.3116719999999999,0.3246319999999998,0.323188,0.3234,0.31788,0.3114639999999999,0.329636,0.295936,0.3091,0.3076,0.306336,0.3192,0.3034,0.3158,0.300736,0.3125,0.296,0.3113,0.332,0.3065,0.3153,0.3132,0.313,0.320136,0.3112,0.317336,0.3096,0.3162,0.306836,0.316336,0.335236,0.3185,0.3209719999999999,0.3200719999999999,0.319936,0.324,0.3187,0.319136,0.3178,0.3197359999999999,0.318,0.322036,0.265388,0.264,0.2631,0.2685559999999999,0.262488,0.2647,0.2648,0.2613
84,0.3391699999999999,0.32025,0.3298,0.3388349999999999,0.33004,0.33007,0.32415,0.317665,0.3360299999999999,0.2987,0.3137449999999999,0.312115,0.311,0.3264749999999998,0.3062,0.320915,0.3041149999999999,0.3174,0.2988,0.315115,0.337815,0.3088299999999999,0.3192149999999999,0.3168,0.316415,0.326915,0.314015,0.322415,0.3122,0.3213149999999999,0.3094,0.3206299999999999,0.3416299999999999,0.321,0.325415,0.324,0.323615,0.329615,0.3226,0.3246899999999997,0.320715,0.3246449999999999,0.320915,0.3261299999999999,0.2703,0.26715,0.26602,0.2739199999999999,0.2676,0.269,0.2702399999999998,0.26665
85,0.3476559999999998,0.32808,0.341,0.347526,0.337952,0.3347,0.32894,0.329014,0.3431,0.3015,0.3178939999999999,0.3155879999999999,0.3139939999999999,0.3315,0.3099939999999999,0.3271,0.3074,0.3224939999999999,0.3019879999999999,0.3191,0.3433,0.3117939999999999,0.3233,0.3212939999999999,0.3202,0.3327939999999999,0.3178,0.3277879999999999,0.3155,0.3263,0.3121939999999999,0.3247939999999999,0.3465,0.3234,0.3293819999999999,0.3277939999999999,0.3273,0.3351639999999997,0.3254939999999999,0.3306939999999999,0.3247879999999999,0.3298,0.3236939999999999,0.3304,0.2774,0.2697,0.2759319999999999,0.2775,0.2736519999999999,0.2731079999999998,0.2747179999999998,0.2711
86,0.358268,0.3429500000000001,0.3492,0.3522,0.346902,0.344602,0.3356,0.338663,0.3496189999999998,0.3052729999999999,0.3224,0.3205729999999999,0.3177459999999999,0.3379729999999999,0.3136,0.3334729999999999,0.311,0.3277189999999998,0.3053,0.3246459999999999,0.3495379999999997,0.3154,0.3273,0.3264919999999998,0.3238,0.3388729999999999,0.321,0.3338729999999999,0.3192459999999999,0.3317,0.3155,0.3297729999999999,0.3539459999999999,0.326,0.3333459999999999,0.3322,0.3319,0.3422729999999999,0.3294,0.3378189999999998,0.3283,0.3353,0.3263729999999999,0.3349,0.285534,0.27382,0.2816439999999999,0.28,0.2809720000000001,0.279734,0.28,0.2764999999999999
87,0.3697799999999999,0.3555399999999999,0.359136,0.359208,0.359432,0.3519159999999999,0.3436,0.350724,0.355452,0.308,0.3273040000000001,0.3253,0.322552,0.345552,0.3179,0.3402,0.313552,0.3332,0.3083,0.330352,0.3574,0.3187,0.332452,0.330252,0.3286,0.347652,0.325,0.342452,0.321952,0.3369,0.3191,0.334752,0.3602040000000001,0.329652,0.3375,0.336452,0.3368,0.3495560000000001,0.3345,0.3453560000000001,0.332452,0.3405,0.3299,0.338852,0.2929,0.2810799999999999,0.2856120000000001,0.2857,0.2887479999999999,0.2882159999999999,0.2858,0.2839
88,0.3782,0.3624,0.364458,0.363699,0.3708960000000001,0.361998,0.35449,0.3580219999999999,0.364031,0.3119,0.331931,0.3298,0.326831,0.352831,0.322,0.3485,0.3178,0.3406,0.312131,0.335431,0.3653,0.3224,0.3370310000000001,0.3351,0.3339,0.3552,0.3291,0.3500930000000001,0.325631,0.3423930000000001,0.3228,0.3406,0.3697,0.333631,0.3431620000000001,0.3426310000000001,0.3417,0.360531,0.3389,0.353531,0.3365620000000001,0.3466,0.3338620000000001,0.3450620000000001,0.3000960000000001,0.2925,0.291468,0.292088,0.2963,0.2933940000000001,0.2922,0.2904
89,0.38928,0.3706,0.3681900000000001,0.3732,0.3804200000000001,0.37278,0.3656,0.36631,0.37251,0.31551,0.3386,0.3361,0.33241,0.36001,0.3266,0.3551,0.32161,0.34561,0.31611,0.34171,0.3729400000000001,0.32611,0.34331,0.34071,0.3392,0.3649300000000001,0.33461,0.3587200000000001,0.33121,0.3494,0.32671,0.3458400000000001,0.37841,0.33761,0.34841,0.3471200000000001,0.347,0.36922,0.3435,0.3628200000000001,0.342,0.3532200000000001,0.33781,0.35081,0.3072200000000001,0.3008,0.29828,0.29558,0.3046200000000001,0.3014200000000001,0.3014700000000002,0.2961
90,0.402562,0.37976,0.3791060000000001,0.380281,0.3894,0.3832239999999999,0.3751699999999999,0.3748,0.381189,0.321589,0.3447340000000002,0.341389,0.3394780000000001,0.368989,0.331,0.3639,0.3268,0.3538,0.321689,0.3481780000000001,0.383089,0.3298780000000001,0.349189,0.3461780000000001,0.3447780000000001,0.373689,0.3389780000000001,0.3668,0.335289,0.3561,0.3308,0.352689,0.387989,0.3426,0.354,0.351789,0.3518670000000001,0.379,0.3486780000000001,0.371178,0.347089,0.359689,0.342878,0.3574780000000001,0.3172859999999999,0.30893,0.3051,0.314072,0.3136239999999999,0.3096239999999999,0.309861,0.3101
91,0.4193080000000003,0.39076,0.3948239999999999,0.4088760000000002,0.402644,0.3916880000000001,0.3917800000000001,0.3900639999999999,0.393368,0.327536,0.3519,0.348036,0.344568,0.382068,0.337636,0.3750400000000001,0.332,0.360468,0.327368,0.356804,0.3937,0.3336,0.356736,0.3538,0.351636,0.384136,0.3448,0.376868,0.339868,0.3625,0.334,0.3604,0.399168,0.3484,0.363504,0.361036,0.360168,0.3897,0.3537,0.380368,0.351468,0.3682,0.348468,0.366868,0.3292,0.31762,0.320004,0.3269,0.324944,0.3187,0.3161960000000002,0.3184
92,0.441526,0.4084300000000003,0.4158740000000018,0.4373410000000001,0.419052,0.4125080000000002,0.4061200000000001,0.4109,0.4042,0.333594,0.3605940000000001,0.3563,0.351894,0.3928940000000001,0.3428940000000001,0.3877940000000001,0.3378940000000001,0.370147,0.333741,0.365,0.4083,0.3377,0.364794,0.361847,0.3590350000000001,0.3953410000000001,0.349947,0.390147,0.3461,0.374047,0.338447,0.368894,0.413847,0.3561410000000001,0.3740350000000002,0.371,0.368,0.402447,0.360494,0.3908,0.358047,0.379347,0.356347,0.3754,0.3434,0.32989,0.3403319999999999,0.343356,0.340252,0.332104,0.3222120000000003,0.3289499999999999
93,0.464616,0.4407799999999998,0.4610780000000002,0.467254,0.437,0.432608,0.4198,0.4341,0.4238779999999998,0.3399259999999999,0.3677259999999999,0.3638259999999999,0.3603339999999994,0.4073779999999998,0.3501379999999991,0.4021259999999999,0.3446,0.3819519999999998,0.3398259999999999,0.3745,0.4250079999999994,0.344,0.3757519999999998,0.3715039999999997,0.3676,0.4118519999999998,0.3588259999999999,0.4030079999999994,0.3536259999999999,0.3868079999999994,0.3442,0.3786519999999999,0.4332039999999997,0.3640259999999999,0.3830559999999996,0.3795259999999999,0.3767559999999996,0.418,0.3682,0.4050259999999999,0.3649,0.3928,0.3632519999999998,0.3887859999999992,0.3627,0.3616199999999999,0.3616119999999999,0.3681719999999994,0.3566479999999999,0.3509,0.3325479999999999,0.3475
94,0.4850699999999999,0.4864,0.4953399999999998,0.4802149999999999,0.4631899999999996,0.4504599999999998,0.46595,0.4726700000000002,0.44941,0.34801,0.3822,0.3774,0.3726,0.4310200000000004,0.3601,0.420515,0.354415,0.399005,0.34801,0.389115,0.452005,0.35251,0.38811,0.3836400000000001,0.3788200000000001,0.43351,0.367705,0.4197300000000001,0.36171,0.4042500000000001,0.3528,0.39521,0.45511,0.3715,0.39682,0.3931350000000001,0.3886200000000001,0.437515,0.3790350000000001,0.42641,0.371405,0.41081,0.3716,0.401515,0.3871899999999996,0.3883,0.3880599999999998,0.38344,0.3757199999999997,0.3695299999999993,0.3597249999999999,0.3794
95,0.5159039999999996,0.53542,0.5183359999999997,0.5132199999999986,0.4974599999999997,0.4889879999999997,0.49634,0.522404,0.473068,0.3594,0.4100760000000002,0.400868,0.3963920000000002,0.461736,0.374884,0.4521,0.3667520000000001,0.4306720000000001,0.358036,0.4200400000000002,0.4761200000000001,0.364884,0.414952,0.4086560000000001,0.403368,0.460684,0.3844400000000001,0.453936,0.370368,0.434668,0.364884,0.4272880000000001,0.485404,0.383936,0.4262400000000005,0.4155200000000001,0.4093400000000001,0.4663880000000001,0.3949720000000001,0.457968,0.383484,0.440452,0.383584,0.4337600000000002,0.4144439999999998,0.4227200000000001,0.4149599999999998,0.4033639999999999,0.4033,0.3971479999999994,0.4124479999999999,0.4048
96,0.573832,0.5656399999999998,0.5692370000000001,0.562627,0.540508,0.5397179999999999,0.5593199999999997,0.5583239999999997,0.5075670000000001,0.385326,0.4488080000000002,0.4382860000000002,0.4274490000000002,0.498463,0.402463,0.4883080000000002,0.3897,0.4699150000000001,0.385326,0.456563,0.5087640000000003,0.4042820000000001,0.4573860000000002,0.4461,0.4362,0.5015,0.410952,0.495178,0.405163,0.4743190000000001,0.4042820000000001,0.466463,0.514663,0.4222300000000001,0.465689,0.454626,0.4492080000000001,0.5081820000000001,0.4308,0.498226,0.4222300000000001,0.479063,0.4222300000000001,0.475715,0.450708,0.4565,0.4360639999999999,0.4162679999999998,0.441032,0.452224,0.4476,0.4671
97,0.6393,0.6273199999999999,0.6117339999999999,0.5799820000000013,0.6179759999999994,0.6374119999999994,0.6132999999999995,0.6342219999999995,0.546668,0.4399200000000001,0.476094,0.46901,0.46701,0.5327780000000001,0.452326,0.527452,0.443784,0.501468,0.4399200000000001,0.4881500000000001,0.555842,0.463942,0.492052,0.487868,0.485042,0.543784,0.469742,0.532668,0.464726,0.502842,0.463942,0.497442,0.5617860000000002,0.47671,0.509878,0.505668,0.499826,0.551526,0.487084,0.5339680000000001,0.478926,0.5090620000000001,0.47671,0.511542,0.5043759999999995,0.4764,0.4809960000000004,0.4977439999999998,0.5053719999999999,0.4929039999999995,0.4952439999999998,0.4995
98,0.8085140000000094,0.6774599999999998,0.6646020000000006,0.6358180000000001,0.8025880000000004,0.8199620000000002,0.7667300000000001,0.7192120000000003,0.628605,0.467621,0.529184,0.513463,0.5029100000000001,0.618684,0.477484,0.611052,0.468705,0.5667260000000001,0.467621,0.5457730000000001,0.6341410000000001,0.482526,0.540347,0.5303680000000001,0.5229830000000001,0.6202350000000002,0.501963,0.6179560000000001,0.488731,0.5756730000000001,0.482526,0.5520460000000001,0.6435980000000001,0.5047470000000001,0.557342,0.546742,0.540421,0.622568,0.5206310000000001,0.617326,0.5074,0.5816,0.5047470000000001,0.562405,0.588218,0.5646999999999979,0.5680760000000004,0.548264,0.5955260000000002,0.6512240000000006,0.593545,0.5643499999999999
